Wavelength nm.	RawData ...	RawData ...	RawData ...	RawData ...	RawData ...	RawData ...	RawData ...	RawData ...	RawData ...	RawData ...	RawData ...	RawData ...	RawData ...	RawData ...	RawData ...	RawData ...
190.00	0.003	0.520	0.496	0.489	0.152	0.503	0.496	0.147	0.527	0.452	0.484	0.517	0.460	0.454	0.477	0.477
191.00	0.006	0.482	0.458	0.455	0.146	0.460	0.453	0.141	0.484	0.418	0.448	0.472	0.428	0.422	0.439	0.440
192.00	0.006	0.446	0.422	0.420	0.139	0.424	0.416	0.135	0.450	0.386	0.417	0.431	0.396	0.388	0.405	0.404
193.00	0.006	0.405	0.385	0.385	0.131	0.385	0.377	0.128	0.413	0.353	0.382	0.390	0.362	0.354	0.369	0.369
194.00	0.005	0.373	0.356	0.357	0.126	0.356	0.347	0.123	0.382	0.326	0.353	0.358	0.336	0.328	0.340	0.341
195.00	0.006	0.345	0.329	0.331	0.121	0.329	0.320	0.118	0.354	0.302	0.328	0.330	0.312	0.304	0.315	0.316
196.00	0.006	0.321	0.307	0.309	0.117	0.308	0.298	0.115	0.332	0.281	0.307	0.307	0.293	0.284	0.294	0.295
197.00	0.005	0.301	0.290	0.290	0.113	0.289	0.278	0.111	0.312	0.262	0.289	0.287	0.276	0.267	0.275	0.276
198.00	0.005	0.283	0.274	0.273	0.110	0.273	0.262	0.108	0.294	0.247	0.274	0.271	0.262	0.252	0.260	0.260
199.00	0.005	0.269	0.261	0.259	0.108	0.259	0.249	0.106	0.279	0.235	0.260	0.257	0.250	0.240	0.247	0.247
200.00	0.004	0.257	0.249	0.248	0.107	0.248	0.239	0.104	0.266	0.225	0.249	0.245	0.240	0.230	0.236	0.236
201.00	0.004	0.245	0.239	0.237	0.104	0.237	0.229	0.102	0.254	0.214	0.237	0.235	0.229	0.221	0.225	0.226
202.00	0.003	0.236	0.229	0.227	0.102	0.227	0.220	0.099	0.244	0.206	0.227	0.226	0.221	0.212	0.216	0.217
203.00	0.003	0.228	0.222	0.220	0.100	0.220	0.213	0.098	0.236	0.200	0.220	0.219	0.214	0.205	0.209	0.210
204.00	0.003	0.220	0.214	0.212	0.099	0.213	0.206	0.096	0.227	0.192	0.212	0.212	0.207	0.199	0.202	0.203
205.00	0.002	0.213	0.207	0.205	0.096	0.206	0.199	0.094	0.219	0.186	0.205	0.205	0.200	0.192	0.195	0.197
206.00	0.002	0.206	0.201	0.198	0.094	0.200	0.193	0.092	0.213	0.180	0.198	0.199	0.194	0.186	0.189	0.191
207.00	0.002	0.200	0.196	0.192	0.093	0.194	0.188	0.090	0.207	0.175	0.192	0.193	0.189	0.181	0.184	0.185
208.00	0.002	0.195	0.190	0.186	0.091	0.189	0.183	0.088	0.201	0.171	0.187	0.188	0.184	0.176	0.179	0.180
209.00	0.002	0.189	0.184	0.180	0.089	0.183	0.177	0.087	0.194	0.166	0.180	0.182	0.178	0.171	0.173	0.175
210.00	0.002	0.183	0.179	0.175	0.087	0.178	0.172	0.085	0.188	0.161	0.175	0.177	0.172	0.166	0.167	0.169
211.00	0.002	0.177	0.173	0.169	0.085	0.172	0.167	0.083	0.182	0.155	0.169	0.171	0.167	0.161	0.162	0.164
212.00	0.002	0.172	0.167	0.163	0.084	0.167	0.161	0.081	0.176	0.151	0.163	0.166	0.161	0.156	0.157	0.159
213.00	0.002	0.165	0.161	0.158	0.081	0.161	0.155	0.079	0.170	0.145	0.157	0.160	0.155	0.150	0.151	0.153
214.00	0.002	0.159	0.155	0.152	0.079	0.155	0.150	0.078	0.164	0.140	0.152	0.154	0.149	0.144	0.146	0.147
215.00	0.002	0.153	0.150	0.146	0.078	0.150	0.144	0.076	0.158	0.135	0.146	0.149	0.144	0.139	0.140	0.142
216.00	0.002	0.148	0.144	0.140	0.076	0.144	0.138	0.074	0.152	0.130	0.140	0.143	0.138	0.134	0.135	0.136
217.00	0.002	0.142	0.139	0.135	0.074	0.139	0.133	0.072	0.146	0.125	0.135	0.137	0.132	0.128	0.130	0.131
218.00	0.002	0.137	0.134	0.130	0.072	0.133	0.128	0.070	0.141	0.121	0.130	0.132	0.127	0.124	0.125	0.126
219.00	0.002	0.132	0.128	0.125	0.070	0.128	0.123	0.069	0.135	0.117	0.125	0.127	0.122	0.119	0.120	0.121
220.00	0.002	0.127	0.124	0.120	0.069	0.124	0.118	0.067	0.131	0.113	0.121	0.123	0.117	0.115	0.116	0.116
221.00	0.002	0.122	0.119	0.116	0.067	0.119	0.113	0.066	0.126	0.108	0.116	0.118	0.112	0.111	0.111	0.112
222.00	0.002	0.118	0.115	0.111	0.066	0.115	0.109	0.064	0.121	0.105	0.112	0.114	0.108	0.106	0.107	0.108
223.00	0.002	0.113	0.111	0.107	0.065	0.111	0.105	0.063	0.117	0.101	0.108	0.110	0.104	0.103	0.103	0.104
224.00	0.002	0.109	0.107	0.104	0.063	0.107	0.101	0.061	0.113	0.097	0.104	0.106	0.100	0.099	0.099	0.100
225.00	0.002	0.105	0.103	0.100	0.062	0.104	0.098	0.060	0.109	0.094	0.100	0.102	0.096	0.095	0.096	0.096
226.00	0.002	0.102	0.100	0.097	0.061	0.100	0.095	0.059	0.106	0.091	0.097	0.099	0.093	0.092	0.093	0.093
227.00	0.002	0.099	0.097	0.094	0.060	0.097	0.091	0.058	0.102	0.089	0.094	0.096	0.090	0.089	0.090	0.090
228.00	0.002	0.096	0.094	0.091	0.058	0.094	0.089	0.057	0.099	0.086	0.091	0.093	0.087	0.087	0.087	0.087
229.00	0.002	0.093	0.091	0.088	0.057	0.091	0.086	0.056	0.096	0.084	0.088	0.090	0.084	0.084	0.084	0.084
230.00	0.002	0.090	0.088	0.085	0.056	0.089	0.083	0.055	0.093	0.081	0.086	0.087	0.081	0.081	0.082	0.082
231.00	0.001	0.088	0.086	0.083	0.055	0.087	0.081	0.054	0.091	0.079	0.083	0.085	0.079	0.079	0.080	0.080
232.00	0.001	0.086	0.084	0.081	0.054	0.084	0.079	0.053	0.088	0.077	0.081	0.083	0.077	0.077	0.078	0.078
233.00	0.001	0.084	0.082	0.079	0.053	0.082	0.077	0.052	0.086	0.075	0.079	0.081	0.074	0.076	0.076	0.076
234.00	0.001	0.082	0.080	0.077	0.053	0.080	0.075	0.051	0.084	0.074	0.077	0.079	0.073	0.074	0.074	0.074
235.00	0.001	0.080	0.078	0.075	0.052	0.079	0.073	0.050	0.082	0.072	0.075	0.078	0.071	0.072	0.072	0.073
236.00	0.001	0.079	0.077	0.074	0.051	0.077	0.072	0.049	0.081	0.071	0.074	0.076	0.070	0.071	0.071	0.071
237.00	0.001	0.077	0.075	0.072	0.050	0.076	0.071	0.049	0.079	0.069	0.072	0.074	0.068	0.069	0.069	0.070
238.00	0.001	0.075	0.074	0.071	0.049	0.074	0.069	0.048	0.078	0.068	0.071	0.073	0.067	0.068	0.068	0.068
239.00	0.001	0.074	0.072	0.069	0.049	0.073	0.068	0.047	0.076	0.067	0.070	0.072	0.065	0.067	0.067	0.067
240.00	0.001	0.073	0.071	0.068	0.048	0.072	0.067	0.046	0.075	0.066	0.068	0.071	0.064	0.066	0.066	0.066
241.00	0.001	0.072	0.070	0.067	0.048	0.071	0.066	0.046	0.074	0.065	0.067	0.070	0.063	0.065	0.065	0.065
242.00	0.001	0.071	0.070	0.066	0.047	0.070	0.065	0.045	0.073	0.064	0.066	0.069	0.063	0.064	0.064	0.064
243.00	0.001	0.070	0.068	0.065	0.046	0.069	0.064	0.045	0.072	0.063	0.065	0.068	0.062	0.063	0.063	0.063
244.00	0.001	0.069	0.068	0.065	0.046	0.068	0.063	0.044	0.071	0.062	0.064	0.067	0.061	0.062	0.062	0.062
245.00	0.001	0.068	0.067	0.064	0.045	0.067	0.063	0.044	0.070	0.062	0.064	0.066	0.060	0.062	0.061	0.062
246.00	0.001	0.067	0.066	0.063	0.045	0.066	0.062	0.043	0.069	0.061	0.063	0.065	0.059	0.061	0.061	0.061
247.00	0.001	0.067	0.065	0.062	0.044	0.066	0.061	0.043	0.068	0.060	0.062	0.065	0.059	0.060	0.060	0.060
248.00	0.001	0.066	0.064	0.062	0.044	0.065	0.060	0.042	0.068	0.060	0.061	0.064	0.058	0.059	0.059	0.059
249.00	0.001	0.065	0.064	0.061	0.043	0.064	0.060	0.042	0.067	0.059	0.060	0.063	0.057	0.059	0.059	0.059
250.00	0.001	0.065	0.063	0.060	0.043	0.064	0.059	0.041	0.066	0.059	0.060	0.063	0.057	0.058	0.058	0.058
251.00	0.001	0.064	0.063	0.060	0.042	0.063	0.059	0.041	0.066	0.058	0.059	0.062	0.056	0.058	0.058	0.058
252.00	0.001	0.064	0.062	0.059	0.042	0.063	0.058	0.040	0.065	0.058	0.059	0.062	0.056	0.057	0.057	0.057
253.00	0.001	0.063	0.062	0.059	0.042	0.062	0.057	0.040	0.065	0.057	0.058	0.061	0.055	0.057	0.057	0.057
254.00	0.001	0.062	0.061	0.058	0.041	0.061	0.057	0.040	0.064	0.056	0.057	0.060	0.055	0.056	0.056	0.056
255.00	0.001	0.062	0.061	0.058	0.041	0.061	0.056	0.039	0.063	0.056	0.057	0.060	0.054	0.055	0.056	0.056
256.00	0.001	0.061	0.060	0.057	0.040	0.060	0.056	0.039	0.063	0.055	0.056	0.059	0.054	0.055	0.055	0.055
257.00	0.001	0.061	0.060	0.057	0.040	0.060	0.055	0.038	0.062	0.055	0.056	0.059	0.053	0.055	0.054	0.055
258.00	0.001	0.060	0.059	0.056	0.040	0.059	0.055	0.038	0.062	0.055	0.056	0.058	0.053	0.054	0.054	0.054
259.00	0.001	0.060	0.059	0.056	0.039	0.059	0.054	0.038	0.061	0.054	0.055	0.058	0.052	0.054	0.053	0.053
260.00	0.001	0.059	0.058	0.055	0.039	0.058	0.054	0.037	0.061	0.054	0.054	0.057	0.052	0.053	0.053	0.053
261.00	0.001	0.059	0.057	0.055	0.039	0.057	0.053	0.037	0.060	0.053	0.054	0.056	0.051	0.053	0.052	0.053
262.00	0.001	0.058	0.057	0.054	0.038	0.057	0.053	0.036	0.060	0.053	0.053	0.056	0.051	0.052	0.052	0.052
263.00	0.001	0.057	0.056	0.054	0.038	0.057	0.052	0.036	0.059	0.052	0.053	0.055	0.050	0.051	0.051	0.051
264.00	0.001	0.057	0.056	0.053	0.037	0.056	0.052	0.036	0.059	0.052	0.052	0.055	0.050	0.051	0.051	0.051
265.00	0.001	0.056	0.055	0.053	0.037	0.055	0.051	0.035	0.058	0.051	0.052	0.054	0.049	0.050	0.050	0.050
266.00	0.001	0.055	0.055	0.052	0.037	0.055	0.050	0.035	0.057	0.050	0.051	0.053	0.048	0.049	0.049	0.049
267.00	0.001	0.055	0.054	0.052	0.036	0.054	0.049	0.034	0.057	0.050	0.050	0.053	0.048	0.049	0.049	0.049
268.00	0.001	0.054	0.053	0.051	0.036	0.053	0.049	0.034	0.056	0.049	0.050	0.052	0.047	0.048	0.048	0.048
269.00	0.001	0.053	0.053	0.050	0.035	0.053	0.048	0.034	0.055	0.048	0.049	0.051	0.047	0.048	0.048	0.048
270.00	0.001	0.053	0.052	0.050	0.035	0.052	0.048	0.033	0.055	0.048	0.049	0.051	0.046	0.047	0.047	0.047
271.00	0.001	0.052	0.051	0.049	0.035	0.051	0.047	0.033	0.054	0.047	0.048	0.050	0.046	0.046	0.046	0.047
272.00	0.001	0.052	0.051	0.049	0.035	0.051	0.046	0.033	0.053	0.047	0.047	0.049	0.045	0.046	0.046	0.046
273.00	0.001	0.051	0.050	0.048	0.034	0.050	0.046	0.032	0.053	0.046	0.047	0.049	0.044	0.045	0.045	0.045
274.00	0.001	0.050	0.049	0.047	0.034	0.049	0.045	0.032	0.052	0.045	0.046	0.048	0.044	0.045	0.045	0.044
275.00	0.001	0.049	0.049	0.046	0.033	0.049	0.045	0.032	0.051	0.045	0.046	0.047	0.043	0.044	0.044	0.044
276.00	0.001	0.049	0.048	0.046	0.033	0.048	0.044	0.031	0.051	0.044	0.045	0.046	0.042	0.043	0.043	0.043
277.00	0.001	0.048	0.047	0.045	0.033	0.047	0.043	0.031	0.050	0.043	0.044	0.046	0.041	0.042	0.042	0.042
278.00	0.001	0.047	0.046	0.044	0.032	0.046	0.042	0.030	0.049	0.042	0.043	0.045	0.041	0.042	0.042	0.042
279.00	0.001	0.046	0.046	0.044	0.032	0.046	0.042	0.030	0.048	0.042	0.043	0.044	0.040	0.041	0.041	0.041
280.00	0.001	0.046	0.045	0.043	0.031	0.045	0.041	0.029	0.048	0.041	0.042	0.044	0.039	0.040	0.040	0.040
281.00	0.001	0.045	0.044	0.042	0.031	0.044	0.040	0.029	0.047	0.040	0.041	0.043	0.039	0.039	0.040	0.039
282.00	0.001	0.044	0.044	0.042	0.030	0.043	0.039	0.028	0.046	0.040	0.041	0.042	0.038	0.039	0.039	0.039
283.00	0.001	0.043	0.043	0.041	0.030	0.043	0.039	0.028	0.045	0.039	0.040	0.041	0.037	0.038	0.038	0.038
284.00	0.001	0.042	0.042	0.040	0.029	0.042	0.038	0.027	0.044	0.038	0.039	0.040	0.037	0.037	0.037	0.037
285.00	0.001	0.042	0.041	0.039	0.029	0.041	0.037	0.027	0.043	0.037	0.038	0.040	0.036	0.037	0.037	0.037
286.00	0.001	0.041	0.041	0.039	0.029	0.040	0.037	0.027	0.043	0.037	0.038	0.039	0.035	0.036	0.036	0.036
287.00	0.001	0.040	0.040	0.038	0.028	0.040	0.036	0.027	0.042	0.036	0.037	0.038	0.035	0.035	0.035	0.035
288.00	0.001	0.040	0.039	0.037	0.028	0.039	0.035	0.026	0.041	0.036	0.036	0.037	0.034	0.035	0.035	0.035
289.00	0.001	0.039	0.038	0.036	0.027	0.038	0.034	0.025	0.040	0.035	0.035	0.036	0.033	0.034	0.034	0.034
290.00	0.001	0.038	0.038	0.036	0.027	0.038	0.034	0.025	0.039	0.034	0.035	0.036	0.033	0.033	0.033	0.033
291.00	0.001	0.037	0.037	0.035	0.027	0.037	0.033	0.025	0.039	0.034	0.034	0.035	0.032	0.033	0.032	0.033
292.00	0.001	0.037	0.036	0.034	0.026	0.036	0.033	0.024	0.038	0.033	0.033	0.035	0.032	0.032	0.032	0.032
293.00	0.001	0.036	0.036	0.033	0.026	0.036	0.032	0.024	0.037	0.032	0.032	0.034	0.031	0.031	0.031	0.032
294.00	0.001	0.035	0.035	0.033	0.026	0.035	0.031	0.024	0.037	0.031	0.032	0.033	0.030	0.031	0.031	0.031
295.00	0.001	0.035	0.034	0.032	0.025	0.034	0.031	0.023	0.036	0.031	0.031	0.033	0.029	0.030	0.030	0.030
296.00	0.001	0.034	0.034	0.032	0.025	0.034	0.030	0.023	0.035	0.030	0.031	0.032	0.029	0.029	0.030	0.029
297.00	0.001	0.033	0.033	0.031	0.025	0.033	0.030	0.022	0.034	0.030	0.030	0.031	0.028	0.029	0.029	0.029
298.00	0.001	0.033	0.032	0.030	0.024	0.033	0.029	0.022	0.034	0.029	0.029	0.031	0.028	0.028	0.028	0.028
299.00	0.001	0.032	0.032	0.030	0.024	0.032	0.028	0.022	0.033	0.029	0.029	0.030	0.027	0.028	0.028	0.028
300.00	0.001	0.032	0.031	0.029	0.024	0.031	0.028	0.021	0.033	0.028	0.028	0.030	0.027	0.027	0.027	0.027
301.00	0.001	0.031	0.031	0.029	0.023	0.031	0.027	0.021	0.032	0.027	0.028	0.029	0.027	0.027	0.027	0.027
302.00	0.001	0.031	0.030	0.028	0.023	0.031	0.027	0.021	0.032	0.027	0.027	0.029	0.026	0.026	0.026	0.026
303.00	0.001	0.030	0.030	0.027	0.023	0.030	0.026	0.021	0.031	0.027	0.027	0.028	0.026	0.026	0.026	0.026
304.00	0.001	0.029	0.029	0.027	0.022	0.029	0.026	0.021	0.030	0.026	0.026	0.028	0.025	0.025	0.025	0.025
305.00	0.001	0.029	0.029	0.026	0.022	0.029	0.025	0.020	0.030	0.026	0.026	0.027	0.025	0.025	0.025	0.025
306.00	0.001	0.029	0.028	0.026	0.022	0.028	0.025	0.020	0.030	0.025	0.025	0.027	0.024	0.024	0.025	0.025
307.00	0.001	0.028	0.028	0.026	0.022	0.028	0.025	0.020	0.029	0.025	0.025	0.026	0.024	0.024	0.024	0.024
308.00	0.001	0.027	0.027	0.025	0.022	0.027	0.024	0.019	0.029	0.024	0.024	0.026	0.024	0.023	0.024	0.023
309.00	0.001	0.027	0.027	0.025	0.021	0.027	0.024	0.019	0.028	0.024	0.024	0.025	0.023	0.023	0.023	0.023
310.00	0.001	0.026	0.026	0.024	0.021	0.026	0.023	0.019	0.028	0.023	0.024	0.025	0.023	0.023	0.023	0.023
311.00	0.001	0.026	0.026	0.024	0.021	0.026	0.023	0.019	0.027	0.023	0.023	0.025	0.022	0.022	0.022	0.022
312.00	0.001	0.026	0.025	0.023	0.020	0.025	0.022	0.018	0.027	0.023	0.023	0.024	0.022	0.022	0.022	0.022
313.00	0.001	0.025	0.025	0.023	0.020	0.025	0.022	0.018	0.027	0.022	0.022	0.024	0.021	0.022	0.022	0.022
314.00	0.001	0.025	0.025	0.023	0.020	0.025	0.022	0.018	0.026	0.022	0.022	0.023	0.021	0.021	0.021	0.021
315.00	0.000	0.024	0.024	0.022	0.019	0.024	0.021	0.017	0.025	0.022	0.021	0.023	0.020	0.021	0.021	0.021
316.00	0.001	0.024	0.023	0.022	0.019	0.024	0.021	0.017	0.025	0.021	0.021	0.022	0.020	0.020	0.020	0.020
317.00	0.001	0.024	0.023	0.021	0.019	0.024	0.021	0.017	0.025	0.021	0.021	0.022	0.020	0.020	0.020	0.020
318.00	0.001	0.023	0.023	0.021	0.019	0.023	0.020	0.017	0.024	0.021	0.020	0.022	0.019	0.020	0.020	0.020
319.00	0.001	0.023	0.023	0.021	0.019	0.023	0.020	0.017	0.024	0.020	0.020	0.021	0.019	0.020	0.019	0.019
320.00	0.001	0.023	0.023	0.020	0.018	0.023	0.020	0.016	0.024	0.020	0.020	0.021	0.019	0.019	0.019	0.019
321.00	0.001	0.022	0.022	0.020	0.018	0.022	0.019	0.016	0.024	0.020	0.020	0.021	0.019	0.019	0.019	0.019
322.00	0.001	0.022	0.022	0.020	0.018	0.022	0.019	0.016	0.023	0.019	0.019	0.020	0.018	0.018	0.018	0.018
323.00	0.001	0.021	0.021	0.019	0.018	0.022	0.018	0.016	0.023	0.019	0.019	0.020	0.018	0.018	0.018	0.018
324.00	0.001	0.021	0.021	0.019	0.018	0.021	0.018	0.015	0.022	0.019	0.019	0.020	0.018	0.018	0.018	0.018
325.00	0.001	0.021	0.021	0.019	0.017	0.021	0.018	0.015	0.022	0.019	0.018	0.019	0.018	0.018	0.018	0.018
326.00	0.000	0.020	0.020	0.018	0.017	0.021	0.018	0.015	0.022	0.018	0.018	0.019	0.017	0.017	0.017	0.017
327.00	0.000	0.020	0.020	0.018	0.017	0.020	0.017	0.015	0.021	0.018	0.017	0.019	0.017	0.017	0.017	0.017
328.00	0.001	0.020	0.019	0.018	0.016	0.020	0.017	0.014	0.021	0.017	0.017	0.018	0.017	0.016	0.017	0.016
329.00	0.001	0.020	0.020	0.018	0.017	0.020	0.017	0.015	0.021	0.017	0.017	0.018	0.016	0.016	0.016	0.016
330.00	0.001	0.019	0.019	0.017	0.016	0.020	0.016	0.014	0.020	0.017	0.017	0.018	0.016	0.016	0.016	0.016
331.00	0.001	0.019	0.019	0.017	0.016	0.019	0.016	0.014	0.020	0.017	0.016	0.018	0.016	0.016	0.016	0.016
332.00	0.000	0.018	0.018	0.017	0.016	0.019	0.016	0.013	0.020	0.016	0.016	0.017	0.015	0.015	0.015	0.015
333.00	0.000	0.018	0.018	0.016	0.016	0.018	0.016	0.013	0.019	0.016	0.016	0.017	0.015	0.015	0.015	0.015
334.00	0.000	0.018	0.018	0.016	0.015	0.018	0.015	0.013	0.019	0.016	0.016	0.016	0.015	0.015	0.015	0.015
335.00	0.000	0.018	0.018	0.016	0.015	0.018	0.015	0.013	0.019	0.015	0.015	0.016	0.015	0.014	0.015	0.015
336.00	0.000	0.017	0.018	0.016	0.015	0.017	0.015	0.013	0.019	0.015	0.015	0.016	0.015	0.014	0.014	0.015
337.00	0.001	0.017	0.017	0.015	0.015	0.017	0.015	0.013	0.018	0.015	0.014	0.015	0.014	0.014	0.014	0.014
338.00	0.001	0.017	0.017	0.015	0.014	0.017	0.014	0.013	0.018	0.015	0.014	0.015	0.014	0.014	0.014	0.014
339.00	0.001	0.017	0.017	0.015	0.015	0.017	0.014	0.013	0.018	0.015	0.014	0.015	0.014	0.014	0.014	0.014
340.00	0.002	0.018	0.018	0.016	0.016	0.018	0.016	0.014	0.019	0.016	0.015	0.017	0.015	0.015	0.015	0.015
341.00	0.001	0.016	0.016	0.015	0.014	0.016	0.014	0.012	0.017	0.014	0.014	0.015	0.013	0.013	0.014	0.014
342.00	0.001	0.016	0.016	0.014	0.014	0.016	0.014	0.012	0.017	0.014	0.013	0.015	0.013	0.013	0.013	0.013
343.00	0.001	0.015	0.016	0.014	0.013	0.016	0.013	0.012	0.016	0.014	0.013	0.014	0.013	0.012	0.013	0.013
344.00	0.001	0.015	0.015	0.014	0.013	0.015	0.013	0.011	0.016	0.013	0.013	0.014	0.012	0.012	0.013	0.012
345.00	0.001	0.015	0.015	0.013	0.013	0.015	0.013	0.011	0.016	0.013	0.013	0.014	0.012	0.012	0.013	0.012
346.00	0.001	0.015	0.015	0.013	0.013	0.015	0.013	0.011	0.016	0.013	0.012	0.014	0.012	0.012	0.012	0.012
347.00	0.001	0.014	0.015	0.013	0.013	0.015	0.012	0.011	0.016	0.013	0.012	0.014	0.012	0.012	0.012	0.012
348.00	0.001	0.014	0.015	0.013	0.013	0.015	0.012	0.011	0.016	0.013	0.012	0.013	0.012	0.011	0.012	0.012
349.00	0.001	0.014	0.014	0.013	0.013	0.015	0.012	0.011	0.015	0.012	0.012	0.013	0.012	0.012	0.012	0.012
350.00	0.001	0.014	0.014	0.013	0.013	0.015	0.012	0.011	0.015	0.012	0.012	0.013	0.012	0.012	0.012	0.012
351.00	0.001	0.014	0.014	0.012	0.012	0.015	0.012	0.011	0.015	0.012	0.012	0.013	0.012	0.011	0.011	0.011
352.00	0.001	0.013	0.014	0.012	0.012	0.014	0.012	0.010	0.015	0.012	0.012	0.012	0.012	0.011	0.011	0.011
353.00	0.001	0.013	0.014	0.012	0.012	0.014	0.011	0.010	0.014	0.012	0.012	0.012	0.011	0.011	0.011	0.011
354.00	0.001	0.013	0.014	0.012	0.012	0.013	0.011	0.010	0.014	0.011	0.011	0.012	0.011	0.010	0.011	0.011
355.00	0.000	0.013	0.013	0.012	0.012	0.013	0.011	0.010	0.014	0.011	0.011	0.012	0.011	0.010	0.010	0.010
356.00	0.000	0.012	0.013	0.011	0.012	0.013	0.011	0.010	0.014	0.011	0.010	0.012	0.011	0.010	0.010	0.010
357.00	0.001	0.012	0.013	0.011	0.011	0.013	0.011	0.009	0.013	0.011	0.010	0.011	0.010	0.010	0.010	0.010
358.00	0.000	0.012	0.013	0.011	0.011	0.013	0.011	0.009	0.013	0.010	0.010	0.011	0.010	0.010	0.010	0.009
359.00	0.000	0.012	0.013	0.011	0.011	0.013	0.010	0.009	0.013	0.011	0.010	0.011	0.010	0.010	0.010	0.010
360.00	0.001	0.012	0.012	0.011	0.011	0.012	0.010	0.009	0.013	0.010	0.010	0.011	0.010	0.009	0.010	0.010
361.00	0.001	0.012	0.012	0.011	0.011	0.012	0.010	0.008	0.013	0.010	0.010	0.010	0.010	0.009	0.009	0.009
362.00	0.001	0.011	0.012	0.010	0.011	0.012	0.010	0.009	0.012	0.010	0.010	0.010	0.009	0.009	0.009	0.009
363.00	0.001	0.011	0.012	0.010	0.010	0.012	0.010	0.009	0.012	0.010	0.010	0.010	0.009	0.009	0.009	0.009
364.00	0.001	0.011	0.012	0.010	0.010	0.012	0.009	0.008	0.012	0.010	0.009	0.010	0.009	0.009	0.009	0.009
365.00	0.001	0.011	0.012	0.010	0.010	0.012	0.009	0.008	0.012	0.010	0.009	0.010	0.009	0.009	0.009	0.009
366.00	0.001	0.011	0.011	0.010	0.010	0.012	0.009	0.008	0.012	0.009	0.009	0.010	0.009	0.008	0.009	0.009
367.00	0.001	0.011	0.011	0.010	0.010	0.011	0.009	0.008	0.012	0.009	0.009	0.010	0.009	0.008	0.009	0.008
368.00	0.000	0.010	0.011	0.009	0.010	0.011	0.009	0.008	0.011	0.009	0.009	0.009	0.008	0.008	0.008	0.008
369.00	0.001	0.010	0.011	0.009	0.010	0.011	0.009	0.008	0.011	0.009	0.009	0.009	0.008	0.008	0.008	0.008
370.00	0.000	0.010	0.011	0.009	0.010	0.011	0.009	0.008	0.011	0.009	0.008	0.009	0.008	0.008	0.008	0.008
371.00	0.001	0.010	0.011	0.009	0.009	0.011	0.008	0.007	0.011	0.009	0.008	0.009	0.008	0.008	0.008	0.008
372.00	0.001	0.009	0.010	0.009	0.009	0.011	0.009	0.007	0.011	0.009	0.008	0.009	0.008	0.008	0.008	0.007
373.00	0.001	0.010	0.010	0.009	0.009	0.010	0.008	0.007	0.011	0.008	0.008	0.009	0.008	0.007	0.008	0.007
374.00	0.001	0.009	0.010	0.009	0.009	0.010	0.008	0.007	0.011	0.008	0.008	0.008	0.008	0.007	0.008	0.007
375.00	0.001	0.009	0.010	0.008	0.009	0.010	0.008	0.007	0.010	0.008	0.008	0.009	0.008	0.007	0.008	0.007
376.00	0.001	0.009	0.010	0.009	0.009	0.010	0.008	0.007	0.011	0.008	0.008	0.008	0.008	0.007	0.008	0.007
377.00	0.000	0.009	0.010	0.008	0.009	0.010	0.008	0.007	0.010	0.008	0.007	0.008	0.007	0.007	0.007	0.007
378.00	0.000	0.009	0.010	0.008	0.009	0.010	0.007	0.007	0.010	0.008	0.007	0.008	0.007	0.007	0.007	0.007
379.00	0.000	0.009	0.010	0.008	0.009	0.010	0.007	0.007	0.010	0.008	0.007	0.008	0.007	0.007	0.007	0.007
380.00	0.000	0.009	0.009	0.008	0.008	0.010	0.007	0.007	0.010	0.007	0.007	0.008	0.007	0.007	0.007	0.007
381.00	0.000	0.008	0.009	0.008	0.008	0.009	0.007	0.006	0.010	0.007	0.007	0.008	0.007	0.006	0.007	0.007
382.00	0.000	0.008	0.009	0.008	0.008	0.009	0.007	0.006	0.010	0.007	0.007	0.007	0.007	0.006	0.007	0.006
383.00	0.000	0.008	0.009	0.007	0.008	0.009	0.007	0.006	0.009	0.007	0.007	0.007	0.007	0.006	0.006	0.006
384.00	0.000	0.008	0.009	0.007	0.008	0.009	0.007	0.006	0.009	0.007	0.006	0.007	0.006	0.006	0.006	0.006
385.00	0.000	0.008	0.009	0.007	0.008	0.009	0.007	0.006	0.009	0.007	0.007	0.007	0.006	0.006	0.006	0.006
386.00	0.000	0.008	0.009	0.007	0.008	0.009	0.007	0.006	0.009	0.007	0.006	0.007	0.006	0.006	0.006	0.006
387.00	0.001	0.008	0.009	0.007	0.008	0.009	0.006	0.006	0.009	0.007	0.006	0.007	0.006	0.006	0.006	0.006
388.00	0.000	0.008	0.008	0.007	0.008	0.009	0.006	0.006	0.009	0.007	0.006	0.007	0.006	0.006	0.006	0.006
389.00	0.000	0.007	0.008	0.007	0.007	0.008	0.006	0.006	0.009	0.007	0.006	0.007	0.006	0.006	0.006	0.006
390.00	0.000	0.007	0.008	0.006	0.007	0.008	0.006	0.005	0.008	0.006	0.006	0.006	0.006	0.005	0.006	0.005
391.00	0.000	0.007	0.008	0.006	0.007	0.008	0.006	0.005	0.008	0.006	0.006	0.006	0.006	0.005	0.005	0.005
392.00	0.000	0.007	0.008	0.006	0.007	0.008	0.006	0.005	0.008	0.006	0.006	0.006	0.006	0.005	0.005	0.005
393.00	0.000	0.007	0.008	0.006	0.007	0.008	0.006	0.005	0.008	0.006	0.006	0.006	0.006	0.005	0.005	0.005
394.00	0.000	0.007	0.008	0.006	0.007	0.008	0.006	0.005	0.008	0.006	0.006	0.006	0.005	0.005	0.005	0.005
395.00	0.000	0.007	0.008	0.006	0.007	0.008	0.006	0.005	0.008	0.006	0.005	0.006	0.005	0.005	0.005	0.005
396.00	0.000	0.007	0.008	0.006	0.007	0.008	0.006	0.005	0.008	0.006	0.005	0.006	0.005	0.005	0.005	0.005
397.00	0.000	0.006	0.007	0.006	0.006	0.008	0.006	0.005	0.007	0.006	0.005	0.006	0.005	0.005	0.005	0.005
398.00	0.000	0.006	0.007	0.006	0.006	0.007	0.005	0.005	0.007	0.005	0.005	0.006	0.005	0.005	0.005	0.005
399.00	0.000	0.006	0.007	0.006	0.006	0.007	0.005	0.005	0.007	0.005	0.005	0.005	0.005	0.005	0.005	0.005
400.00	0.001	0.006	0.007	0.006	0.006	0.007	0.005	0.005	0.007	0.005	0.005	0.005	0.005	0.004	0.005	0.005
401.00	0.000	0.006	0.007	0.006	0.006	0.007	0.005	0.005	0.007	0.005	0.005	0.005	0.005	0.004	0.005	0.004
402.00	0.000	0.006	0.007	0.006	0.006	0.007	0.005	0.004	0.007	0.005	0.005	0.005	0.005	0.004	0.005	0.004
403.00	0.000	0.006	0.007	0.005	0.006	0.007	0.005	0.004	0.007	0.005	0.005	0.005	0.004	0.004	0.004	0.004
404.00	0.000	0.006	0.007	0.005	0.006	0.007	0.005	0.004	0.007	0.005	0.005	0.005	0.005	0.004	0.004	0.004
405.00	0.000	0.006	0.007	0.005	0.006	0.007	0.005	0.004	0.007	0.005	0.005	0.005	0.004	0.004	0.004	0.004
406.00	0.000	0.006	0.007	0.005	0.006	0.007	0.005	0.004	0.007	0.005	0.005	0.005	0.004	0.004	0.004	0.004
407.00	0.000	0.006	0.007	0.005	0.006	0.006	0.004	0.004	0.007	0.005	0.004	0.005	0.004	0.004	0.004	0.004
408.00	0.000	0.006	0.006	0.005	0.006	0.007	0.004	0.004	0.007	0.005	0.004	0.005	0.004	0.004	0.004	0.004
409.00	0.000	0.006	0.006	0.005	0.006	0.006	0.004	0.004	0.007	0.005	0.004	0.005	0.004	0.004	0.004	0.004
410.00	0.000	0.005	0.007	0.005	0.006	0.006	0.004	0.004	0.007	0.005	0.004	0.005	0.004	0.004	0.004	0.004
411.00	0.000	0.005	0.006	0.005	0.006	0.006	0.004	0.004	0.006	0.005	0.004	0.005	0.004	0.004	0.004	0.004
412.00	0.000	0.005	0.006	0.005	0.006	0.006	0.004	0.004	0.006	0.004	0.004	0.004	0.004	0.004	0.004	0.004
413.00	0.000	0.005	0.006	0.005	0.006	0.006	0.004	0.004	0.006	0.005	0.004	0.004	0.004	0.004	0.004	0.004
414.00	0.000	0.005	0.006	0.005	0.006	0.006	0.004	0.004	0.006	0.005	0.004	0.004	0.004	0.004	0.004	0.004
415.00	0.000	0.005	0.006	0.005	0.006	0.006	0.004	0.004	0.006	0.004	0.004	0.004	0.004	0.003	0.004	0.004
416.00	0.000	0.005	0.006	0.005	0.006	0.006	0.004	0.004	0.006	0.004	0.004	0.004	0.004	0.003	0.004	0.004
417.00	0.000	0.005	0.006	0.004	0.005	0.006	0.004	0.004	0.006	0.004	0.004	0.004	0.004	0.003	0.003	0.003
418.00	0.000	0.005	0.006	0.004	0.005	0.006	0.004	0.004	0.006	0.004	0.004	0.004	0.004	0.003	0.003	0.003
419.00	0.000	0.005	0.006	0.004	0.005	0.006	0.004	0.004	0.006	0.004	0.004	0.004	0.004	0.003	0.003	0.003
420.00	0.000	0.005	0.006	0.004	0.005	0.006	0.004	0.004	0.006	0.004	0.004	0.004	0.004	0.003	0.003	0.003
421.00	0.000	0.005	0.006	0.004	0.005	0.006	0.004	0.003	0.006	0.004	0.004	0.004	0.004	0.003	0.003	0.003
422.00	0.000	0.004	0.005	0.004	0.005	0.006	0.004	0.003	0.006	0.004	0.004	0.004	0.003	0.003	0.003	0.003
423.00	0.000	0.004	0.006	0.004	0.005	0.006	0.004	0.003	0.006	0.004	0.004	0.004	0.003	0.003	0.003	0.003
424.00	0.000	0.004	0.005	0.004	0.005	0.005	0.004	0.003	0.006	0.004	0.004	0.004	0.003	0.003	0.003	0.003
425.00	0.000	0.004	0.006	0.004	0.005	0.005	0.004	0.003	0.006	0.004	0.003	0.004	0.003	0.003	0.003	0.003
426.00	0.000	0.004	0.005	0.004	0.005	0.005	0.004	0.003	0.005	0.004	0.003	0.004	0.003	0.003	0.003	0.003
427.00	0.001	0.004	0.005	0.004	0.005	0.005	0.003	0.003	0.005	0.004	0.003	0.003	0.003	0.003	0.003	0.003
428.00	0.001	0.004	0.005	0.004	0.005	0.005	0.003	0.003	0.005	0.004	0.003	0.003	0.003	0.003	0.003	0.003
429.00	0.000	0.004	0.005	0.004	0.005	0.005	0.003	0.003	0.005	0.004	0.003	0.003	0.003	0.003	0.003	0.003
430.00	0.000	0.004	0.005	0.004	0.005	0.005	0.003	0.003	0.005	0.004	0.003	0.003	0.003	0.003	0.003	0.003
431.00	0.000	0.004	0.005	0.004	0.004	0.005	0.003	0.003	0.005	0.004	0.003	0.003	0.003	0.003	0.003	0.003
432.00	0.000	0.004	0.005	0.004	0.004	0.005	0.003	0.003	0.005	0.003	0.003	0.003	0.003	0.002	0.003	0.003
433.00	0.000	0.004	0.005	0.004	0.004	0.005	0.003	0.003	0.005	0.003	0.003	0.003	0.003	0.002	0.003	0.002
434.00	0.000	0.004	0.005	0.004	0.004	0.005	0.003	0.003	0.005	0.003	0.003	0.003	0.003	0.002	0.003	0.002
435.00	0.000	0.004	0.005	0.003	0.004	0.005	0.003	0.003	0.005	0.003	0.003	0.003	0.003	0.002	0.003	0.002
436.00	0.000	0.004	0.005	0.003	0.004	0.005	0.003	0.003	0.005	0.003	0.003	0.003	0.003	0.002	0.002	0.002
437.00	0.000	0.004	0.005	0.003	0.004	0.005	0.003	0.003	0.005	0.003	0.003	0.003	0.003	0.002	0.003	0.002
438.00	0.000	0.003	0.005	0.003	0.004	0.005	0.003	0.003	0.004	0.003	0.003	0.003	0.002	0.002	0.002	0.002
439.00	0.000	0.003	0.005	0.003	0.004	0.004	0.003	0.002	0.004	0.003	0.003	0.003	0.002	0.002	0.002	0.002
440.00	0.000	0.003	0.005	0.003	0.004	0.004	0.003	0.002	0.004	0.003	0.003	0.003	0.002	0.002	0.002	0.002
441.00	0.000	0.003	0.005	0.003	0.004	0.004	0.003	0.002	0.004	0.003	0.003	0.003	0.002	0.002	0.002	0.002
442.00	0.000	0.003	0.004	0.003	0.004	0.004	0.003	0.002	0.004	0.003	0.002	0.003	0.002	0.002	0.002	0.002
443.00	0.000	0.003	0.004	0.003	0.004	0.004	0.003	0.002	0.004	0.003	0.003	0.003	0.002	0.002	0.002	0.002
444.00	0.000	0.003	0.004	0.003	0.004	0.004	0.003	0.002	0.004	0.003	0.002	0.002	0.002	0.002	0.002	0.002
445.00	0.000	0.003	0.004	0.003	0.004	0.004	0.003	0.002	0.004	0.003	0.002	0.002	0.002	0.002	0.002	0.002
446.00	0.000	0.003	0.004	0.003	0.004	0.004	0.002	0.002	0.004	0.003	0.002	0.002	0.002	0.002	0.002	0.002
447.00	0.000	0.003	0.004	0.003	0.004	0.004	0.002	0.002	0.004	0.003	0.002	0.002	0.002	0.002	0.002	0.002
448.00	0.000	0.003	0.004	0.003	0.004	0.004	0.002	0.002	0.004	0.003	0.002	0.002	0.002	0.002	0.002	0.002
449.00	0.000	0.003	0.004	0.003	0.004	0.004	0.002	0.002	0.004	0.003	0.002	0.002	0.002	0.002	0.002	0.002
450.00	0.000	0.003	0.004	0.003	0.004	0.004	0.002	0.002	0.004	0.003	0.002	0.002	0.002	0.002	0.002	0.002
451.00	0.000	0.003	0.004	0.003	0.004	0.004	0.002	0.002	0.004	0.003	0.002	0.002	0.002	0.002	0.002	0.002
452.00	0.000	0.003	0.004	0.003	0.004	0.004	0.002	0.002	0.004	0.002	0.002	0.002	0.002	0.002	0.002	0.002
453.00	0.000	0.003	0.004	0.003	0.004	0.004	0.002	0.002	0.004	0.002	0.002	0.002	0.002	0.001	0.002	0.002
454.00	0.000	0.003	0.004	0.003	0.004	0.004	0.002	0.002	0.004	0.002	0.002	0.002	0.002	0.002	0.002	0.002
455.00	0.000	0.003	0.004	0.003	0.003	0.004	0.002	0.002	0.004	0.002	0.002	0.002	0.002	0.002	0.002	0.002
456.00	0.000	0.003	0.004	0.003	0.003	0.004	0.002	0.002	0.004	0.002	0.002	0.002	0.002	0.001	0.002	0.002
457.00	0.000	0.003	0.004	0.003	0.003	0.004	0.002	0.002	0.004	0.002	0.002	0.002	0.002	0.001	0.002	0.002
458.00	0.000	0.003	0.004	0.003	0.003	0.004	0.002	0.002	0.004	0.002	0.002	0.002	0.002	0.001	0.002	0.002
459.00	0.000	0.003	0.004	0.002	0.003	0.004	0.002	0.002	0.004	0.002	0.002	0.002	0.002	0.001	0.001	0.002
460.00	0.000	0.003	0.004	0.002	0.003	0.004	0.002	0.002	0.004	0.002	0.002	0.002	0.002	0.001	0.001	0.001
461.00	0.000	0.003	0.004	0.002	0.003	0.004	0.002	0.002	0.004	0.002	0.002	0.002	0.002	0.001	0.001	0.002
462.00	0.000	0.003	0.004	0.002	0.003	0.004	0.002	0.002	0.004	0.002	0.002	0.002	0.002	0.001	0.002	0.002
463.00	0.000	0.003	0.004	0.002	0.003	0.004	0.002	0.002	0.004	0.002	0.002	0.002	0.002	0.001	0.001	0.002
464.00	0.000	0.003	0.004	0.002	0.003	0.003	0.002	0.002	0.004	0.002	0.002	0.002	0.002	0.001	0.001	0.002
465.00	0.000	0.003	0.004	0.002	0.003	0.004	0.002	0.002	0.004	0.002	0.002	0.002	0.002	0.001	0.001	0.001
466.00	0.000	0.002	0.004	0.002	0.003	0.004	0.002	0.002	0.004	0.002	0.002	0.002	0.002	0.001	0.001	0.001
467.00	0.000	0.002	0.003	0.002	0.003	0.003	0.002	0.002	0.003	0.002	0.002	0.002	0.002	0.001	0.001	0.001
468.00	0.000	0.002	0.004	0.002	0.003	0.003	0.002	0.002	0.003	0.002	0.002	0.002	0.002	0.001	0.001	0.001
469.00	0.000	0.002	0.003	0.002	0.003	0.003	0.002	0.002	0.003	0.002	0.002	0.002	0.002	0.001	0.001	0.001
470.00	0.000	0.002	0.003	0.002	0.003	0.003	0.002	0.002	0.003	0.002	0.002	0.002	0.002	0.001	0.001	0.001
471.00	0.000	0.002	0.003	0.002	0.003	0.003	0.002	0.002	0.003	0.002	0.002	0.002	0.002	0.001	0.001	0.001
472.00	0.000	0.002	0.003	0.002	0.003	0.003	0.002	0.002	0.003	0.002	0.002	0.002	0.002	0.001	0.001	0.001
473.00	0.000	0.002	0.003	0.002	0.003	0.003	0.002	0.002	0.003	0.002	0.002	0.002	0.002	0.001	0.001	0.001
474.00	0.000	0.002	0.003	0.002	0.003	0.003	0.002	0.002	0.003	0.002	0.002	0.002	0.002	0.001	0.001	0.001
475.00	0.000	0.002	0.003	0.002	0.003	0.003	0.002	0.002	0.003	0.002	0.001	0.001	0.001	0.001	0.001	0.001
476.00	0.000	0.002	0.003	0.002	0.003	0.003	0.002	0.002	0.003	0.002	0.002	0.001	0.001	0.001	0.001	0.001
477.00	0.000	0.002	0.003	0.002	0.003	0.003	0.002	0.001	0.003	0.002	0.001	0.001	0.001	0.001	0.001	0.001
478.00	0.000	0.002	0.003	0.002	0.003	0.003	0.002	0.001	0.003	0.002	0.001	0.001	0.001	0.001	0.001	0.001
479.00	0.000	0.002	0.003	0.002	0.003	0.003	0.001	0.001	0.003	0.002	0.001	0.001	0.001	0.001	0.001	0.001
480.00	0.000	0.002	0.003	0.002	0.003	0.003	0.002	0.001	0.003	0.002	0.001	0.001	0.001	0.001	0.001	0.001
481.00	0.000	0.002	0.003	0.002	0.003	0.003	0.001	0.001	0.003	0.001	0.001	0.001	0.001	0.001	0.001	0.001
482.00	0.000	0.002	0.003	0.002	0.002	0.003	0.001	0.001	0.003	0.001	0.001	0.001	0.001	0.001	0.001	0.001
483.00	0.000	0.002	0.003	0.002	0.002	0.003	0.001	0.001	0.003	0.001	0.001	0.001	0.001	0.001	0.001	0.001
484.00	0.000	0.002	0.003	0.002	0.002	0.003	0.001	0.001	0.003	0.001	0.001	0.001	0.001	0.001	0.001	0.001
485.00	0.000	0.002	0.003	0.002	0.002	0.003	0.001	0.001	0.003	0.001	0.001	0.001	0.001	0.001	0.001	0.001
486.00	0.000	0.002	0.003	0.002	0.002	0.003	0.001	0.001	0.003	0.001	0.001	0.001	0.001	0.001	0.001	0.001
487.00	0.000	0.002	0.003	0.002	0.002	0.003	0.001	0.001	0.003	0.001	0.001	0.001	0.001	0.001	0.001	0.001
488.00	0.000	0.002	0.003	0.002	0.002	0.003	0.001	0.001	0.003	0.001	0.001	0.001	0.001	0.001	0.001	0.001
489.00	0.000	0.002	0.003	0.002	0.002	0.003	0.001	0.001	0.003	0.001	0.001	0.001	0.001	0.001	0.001	0.001
490.00	0.000	0.002	0.003	0.002	0.002	0.003	0.001	0.001	0.003	0.001	0.001	0.001	0.001	0.001	0.001	0.001
491.00	0.000	0.002	0.003	0.002	0.002	0.003	0.001	0.001	0.003	0.001	0.001	0.001	0.001	0.001	0.001	0.001
492.00	0.000	0.002	0.003	0.002	0.002	0.003	0.001	0.001	0.003	0.001	0.001	0.001	0.001	0.001	0.001	0.001
493.00	0.000	0.002	0.003	0.002	0.002	0.003	0.001	0.001	0.003	0.001	0.001	0.001	0.001	0.001	0.001	0.001
494.00	0.000	0.002	0.003	0.002	0.002	0.003	0.001	0.001	0.003	0.001	0.001	0.001	0.001	0.001	0.001	0.001
495.00	0.000	0.002	0.003	0.002	0.002	0.003	0.001	0.001	0.003	0.001	0.001	0.001	0.001	0.001	0.001	0.001
496.00	0.000	0.002	0.003	0.002	0.002	0.003	0.001	0.001	0.003	0.001	0.001	0.001	0.001	0.001	0.001	0.001
497.00	0.000	0.002	0.003	0.002	0.002	0.003	0.001	0.001	0.003	0.001	0.001	0.001	0.001	0.001	0.001	0.001
498.00	0.000	0.002	0.003	0.002	0.002	0.003	0.001	0.001	0.003	0.001	0.001	0.001	0.001	0.001	0.001	0.001
499.00	0.000	0.002	0.003	0.002	0.002	0.003	0.001	0.001	0.003	0.001	0.001	0.001	0.001	0.001	0.001	0.001
500.00	0.000	0.002	0.003	0.002	0.002	0.003	0.001	0.001	0.003	0.001	0.001	0.001	0.001	0.001	0.001	0.001
501.00	0.000	0.002	0.003	0.002	0.002	0.003	0.001	0.001	0.003	0.001	0.001	0.001	0.001	0.001	0.001	0.001
502.00	0.000	0.002	0.003	0.002	0.002	0.003	0.001	0.001	0.003	0.001	0.001	0.001	0.001	0.001	0.001	0.001
503.00	0.000	0.002	0.003	0.002	0.002	0.003	0.001	0.001	0.003	0.001	0.001	0.001	0.001	0.001	0.001	0.001
504.00	0.000	0.002	0.003	0.002	0.002	0.003	0.001	0.001	0.003	0.001	0.001	0.001	0.001	0.001	0.001	0.001
505.00	0.000	0.002	0.003	0.002	0.002	0.003	0.001	0.001	0.003	0.001	0.001	0.001	0.001	0.001	0.001	0.001
506.00	0.000	0.002	0.003	0.002	0.002	0.003	0.001	0.001	0.003	0.001	0.001	0.001	0.001	0.001	0.001	0.001
507.00	0.000	0.002	0.003	0.002	0.002	0.003	0.001	0.001	0.003	0.001	0.001	0.001	0.001	0.000	0.001	0.001
508.00	0.000	0.002	0.003	0.002	0.002	0.003	0.001	0.001	0.002	0.001	0.001	0.001	0.001	0.000	0.001	0.001
509.00	0.000	0.002	0.003	0.002	0.002	0.003	0.001	0.001	0.002	0.001	0.001	0.001	0.001	0.000	0.001	0.001
510.00	0.000	0.001	0.003	0.001	0.002	0.003	0.001	0.001	0.002	0.001	0.001	0.001	0.001	0.000	0.001	0.001
511.00	0.000	0.001	0.003	0.001	0.002	0.002	0.001	0.001	0.002	0.001	0.001	0.001	0.001	0.000	0.001	0.001
512.00	0.000	0.002	0.003	0.001	0.002	0.003	0.001	0.001	0.002	0.001	0.001	0.001	0.001	0.000	0.001	0.001
513.00	0.000	0.002	0.003	0.002	0.002	0.003	0.001	0.001	0.002	0.001	0.001	0.001	0.001	0.000	0.001	0.001
514.00	0.000	0.002	0.003	0.001	0.002	0.003	0.001	0.001	0.003	0.001	0.001	0.001	0.001	0.000	0.001	0.001
515.00	0.000	0.002	0.003	0.001	0.002	0.003	0.001	0.001	0.003	0.001	0.001	0.001	0.001	0.000	0.001	0.001
516.00	0.000	0.002	0.003	0.001	0.002	0.003	0.001	0.001	0.002	0.001	0.001	0.001	0.001	0.000	0.001	0.001
517.00	0.000	0.002	0.003	0.001	0.002	0.003	0.001	0.001	0.003	0.001	0.001	0.001	0.001	0.000	0.001	0.001
518.00	0.000	0.001	0.003	0.001	0.002	0.002	0.001	0.001	0.002	0.001	0.001	0.001	0.001	0.000	0.001	0.001
519.00	0.000	0.001	0.003	0.001	0.002	0.002	0.001	0.001	0.002	0.001	0.001	0.001	0.001	0.000	0.001	0.001
520.00	0.000	0.001	0.003	0.001	0.002	0.002	0.001	0.001	0.002	0.001	0.001	0.001	0.001	0.000	0.000	0.001
521.00	0.000	0.001	0.003	0.001	0.002	0.002	0.001	0.001	0.002	0.001	0.001	0.001	0.001	0.000	0.001	0.001
522.00	0.000	0.001	0.003	0.001	0.002	0.002	0.001	0.001	0.002	0.001	0.001	0.001	0.001	0.000	0.001	0.001
523.00	0.000	0.001	0.003	0.001	0.002	0.002	0.001	0.001	0.002	0.001	0.001	0.001	0.001	0.000	0.001	0.001
524.00	0.000	0.001	0.003	0.001	0.002	0.002	0.001	0.001	0.002	0.001	0.001	0.001	0.001	0.000	0.000	0.001
525.00	0.000	0.001	0.003	0.001	0.002	0.002	0.001	0.001	0.002	0.001	0.001	0.001	0.001	0.000	0.000	0.001
526.00	0.000	0.001	0.003	0.001	0.002	0.002	0.001	0.001	0.002	0.001	0.001	0.001	0.001	0.000	0.001	0.001
527.00	0.000	0.001	0.002	0.001	0.002	0.002	0.001	0.001	0.002	0.001	0.001	0.001	0.001	0.000	0.000	0.001
528.00	0.000	0.001	0.002	0.001	0.002	0.002	0.001	0.001	0.002	0.001	0.001	0.001	0.001	0.000	0.000	0.001
529.00	0.000	0.001	0.002	0.001	0.002	0.002	0.001	0.001	0.002	0.001	0.001	0.001	0.001	0.000	0.000	0.000
530.00	0.000	0.001	0.002	0.001	0.002	0.002	0.001	0.001	0.002	0.001	0.001	0.001	0.001	0.000	0.000	0.000
531.00	0.000	0.001	0.002	0.001	0.002	0.002	0.001	0.001	0.002	0.001	0.001	0.001	0.001	0.000	0.000	0.000
532.00	0.000	0.001	0.002	0.001	0.002	0.002	0.001	0.001	0.002	0.001	0.001	0.001	0.001	0.000	0.000	0.000
533.00	0.000	0.001	0.002	0.001	0.002	0.002	0.001	0.001	0.002	0.001	0.001	0.001	0.001	0.000	0.001	0.000
534.00	0.000	0.001	0.002	0.001	0.002	0.002	0.001	0.001	0.002	0.001	0.001	0.001	0.001	0.000	0.000	0.000
535.00	0.000	0.001	0.003	0.001	0.002	0.002	0.001	0.001	0.002	0.001	0.001	0.001	0.001	0.000	0.001	0.001
536.00	0.001	0.002	0.004	0.002	0.003	0.003	0.002	0.002	0.003	0.002	0.002	0.002	0.002	0.001	0.002	0.002
537.00	0.000	0.001	0.003	0.001	0.002	0.002	0.001	0.001	0.002	0.001	0.001	0.001	0.001	0.000	0.001	0.001
538.00	0.000	0.001	0.002	0.001	0.002	0.002	0.001	0.001	0.002	0.000	0.001	0.001	0.001	0.000	0.000	0.000
539.00	0.000	0.001	0.002	0.001	0.002	0.002	0.001	0.001	0.002	0.000	0.001	0.001	0.001	0.000	0.000	0.000
540.00	0.000	0.001	0.002	0.001	0.001	0.002	0.001	0.001	0.002	0.000	0.001	0.000	0.001	-0.000	0.000	0.000
541.00	0.000	0.001	0.002	0.001	0.001	0.002	0.000	0.001	0.002	0.000	0.001	0.000	0.001	-0.000	0.000	0.000
542.00	0.000	0.001	0.002	0.001	0.001	0.002	0.000	0.000	0.002	0.000	0.001	0.000	0.001	-0.000	0.000	0.000
543.00	0.000	0.001	0.002	0.001	0.001	0.002	0.001	0.000	0.002	0.000	0.001	0.000	0.000	-0.000	0.000	0.000
544.00	0.000	0.001	0.002	0.001	0.001	0.002	0.001	0.001	0.002	0.000	0.001	0.000	0.001	-0.000	0.000	0.000
545.00	0.000	0.001	0.002	0.001	0.001	0.002	0.001	0.001	0.002	0.000	0.001	0.000	0.001	-0.000	0.000	0.000
546.00	0.000	0.001	0.002	0.001	0.001	0.002	0.000	0.000	0.002	0.000	0.001	0.000	0.001	0.000	0.000	0.000
547.00	0.000	0.001	0.002	0.001	0.001	0.002	0.000	0.000	0.002	0.000	0.001	0.000	0.000	-0.000	0.000	0.000
548.00	0.000	0.001	0.002	0.001	0.001	0.002	0.000	0.001	0.002	0.000	0.001	0.000	0.001	0.000	0.000	0.000
549.00	0.000	0.001	0.002	0.001	0.001	0.002	0.000	0.001	0.002	0.000	0.001	0.000	0.001	0.000	0.000	0.000
550.00	0.000	0.001	0.002	0.001	0.001	0.002	0.000	0.001	0.002	0.000	0.001	0.000	0.000	-0.000	0.000	0.000
551.00	0.000	0.001	0.002	0.001	0.001	0.002	0.000	0.001	0.002	0.000	0.001	0.000	0.000	-0.000	0.000	0.000
552.00	0.000	0.001	0.002	0.001	0.001	0.002	0.000	0.000	0.002	0.000	0.001	0.000	0.000	-0.000	0.000	0.000
553.00	0.000	0.001	0.002	0.001	0.001	0.002	0.000	0.001	0.002	0.000	0.001	0.000	0.000	-0.000	0.000	0.000
554.00	0.000	0.001	0.002	0.001	0.001	0.002	0.000	0.001	0.002	0.000	0.001	0.000	0.000	-0.000	0.000	0.000
555.00	0.000	0.001	0.002	0.001	0.001	0.002	0.000	0.001	0.002	0.000	0.001	0.000	0.001	-0.000	0.000	0.000
556.00	0.000	0.001	0.002	0.001	0.001	0.002	0.000	0.000	0.002	0.000	0.001	0.000	0.000	-0.000	0.000	0.000
557.00	0.000	0.001	0.002	0.001	0.001	0.002	0.000	0.000	0.002	0.000	0.000	0.000	0.000	-0.000	0.000	0.000
558.00	0.000	0.001	0.002	0.001	0.001	0.002	0.000	0.000	0.002	0.000	0.000	0.000	0.000	-0.000	0.000	0.000
559.00	0.000	0.001	0.002	0.001	0.001	0.002	0.000	0.000	0.002	0.000	0.001	0.000	0.000	-0.000	0.000	0.000
560.00	0.000	0.001	0.002	0.001	0.001	0.002	0.000	0.001	0.002	0.000	0.001	0.000	0.000	-0.000	0.000	0.000
561.00	0.000	0.001	0.002	0.001	0.001	0.002	0.000	0.001	0.002	0.000	0.001	0.000	0.001	0.000	0.000	0.000
562.00	0.000	0.001	0.002	0.001	0.001	0.002	0.000	0.001	0.002	0.000	0.001	0.000	0.000	-0.000	0.000	0.000
563.00	0.000	0.001	0.002	0.001	0.001	0.002	0.000	0.001	0.002	0.000	0.001	0.000	0.000	-0.000	0.000	0.000
564.00	0.000	0.001	0.002	0.001	0.001	0.002	0.000	0.001	0.002	0.000	0.001	0.000	0.001	-0.000	0.000	0.000
565.00	0.000	0.001	0.002	0.001	0.001	0.002	0.000	0.001	0.002	0.000	0.001	0.000	0.001	-0.000	0.000	0.000
566.00	0.000	0.001	0.002	0.001	0.001	0.002	0.000	0.001	0.002	0.000	0.001	0.000	0.001	0.000	0.000	0.000
567.00	0.000	0.001	0.002	0.001	0.001	0.002	0.000	0.001	0.002	0.000	0.001	0.000	0.001	0.000	0.000	0.000
568.00	0.000	0.001	0.002	0.001	0.001	0.002	0.000	0.001	0.002	0.000	0.001	0.000	0.001	0.000	0.000	0.000
569.00	0.000	0.001	0.002	0.001	0.001	0.002	0.000	0.001	0.002	0.000	0.000	0.000	0.001	-0.000	0.000	0.000
570.00	0.000	0.001	0.002	0.001	0.001	0.002	0.000	0.001	0.002	0.000	0.000	0.000	0.001	-0.000	0.000	0.000
571.00	0.000	0.001	0.002	0.001	0.001	0.002	0.000	0.001	0.002	0.000	0.000	0.000	0.001	-0.000	0.000	0.000
572.00	0.000	0.001	0.002	0.001	0.001	0.002	0.000	0.001	0.002	0.000	0.000	0.000	0.001	-0.000	0.000	0.000
573.00	0.000	0.001	0.002	0.001	0.001	0.002	0.000	0.001	0.002	0.000	0.000	0.000	0.001	-0.000	0.000	0.000
574.00	0.000	0.001	0.002	0.001	0.001	0.002	0.000	0.001	0.002	0.000	0.000	0.000	0.001	-0.000	0.000	0.000
575.00	0.000	0.001	0.002	0.001	0.001	0.002	0.000	0.001	0.002	0.000	0.000	0.000	0.000	-0.000	0.000	0.000
576.00	0.000	0.001	0.002	0.001	0.001	0.002	0.000	0.001	0.002	0.000	0.000	0.000	0.001	0.000	0.000	0.000
577.00	0.000	0.001	0.002	0.001	0.001	0.002	0.000	0.001	0.002	0.000	0.000	0.000	0.000	-0.000	0.000	0.000
578.00	0.000	0.001	0.002	0.001	0.001	0.002	0.000	0.001	0.002	0.000	0.000	0.000	0.000	-0.000	0.000	0.000
579.00	0.000	0.001	0.002	0.001	0.001	0.002	0.000	0.001	0.002	0.000	0.000	0.000	0.001	-0.000	0.000	0.000
580.00	0.000	0.001	0.002	0.001	0.001	0.002	0.000	0.001	0.002	0.000	0.000	0.000	0.001	0.000	0.000	0.000
581.00	0.000	0.001	0.002	0.001	0.001	0.002	0.000	0.001	0.002	0.000	0.000	0.000	0.001	-0.000	0.000	0.000
582.00	0.000	0.001	0.002	0.001	0.001	0.002	0.000	0.000	0.002	0.000	0.000	0.000	0.001	-0.000	0.000	0.000
583.00	0.000	0.001	0.002	0.001	0.001	0.002	0.000	0.001	0.002	0.000	0.000	0.000	0.001	-0.000	0.000	0.000
584.00	0.000	0.001	0.002	0.001	0.001	0.002	0.000	0.001	0.002	0.000	0.001	0.000	0.001	-0.000	0.000	0.000
585.00	0.000	0.001	0.002	0.001	0.001	0.002	0.000	0.000	0.002	0.000	0.000	0.000	0.001	-0.000	0.000	0.000
586.00	0.000	0.001	0.002	0.001	0.001	0.002	0.000	0.001	0.002	0.000	0.000	0.000	0.001	-0.000	0.000	0.000
587.00	0.000	0.001	0.002	0.001	0.001	0.002	0.000	0.001	0.002	0.000	0.000	0.000	0.001	-0.000	0.000	0.000
588.00	0.000	0.001	0.002	0.001	0.001	0.002	0.000	0.001	0.002	0.000	0.000	0.000	0.001	-0.000	0.000	0.000
589.00	0.000	0.001	0.002	0.001	0.001	0.002	0.000	0.000	0.002	0.000	0.000	0.000	0.000	-0.000	0.000	0.000
590.00	-0.000	0.001	0.002	0.001	0.001	0.002	0.000	0.000	0.001	0.000	0.000	0.000	0.000	-0.000	0.000	0.000
591.00	0.000	0.001	0.002	0.001	0.001	0.002	0.000	0.000	0.002	0.000	0.000	0.000	0.000	-0.000	0.000	0.000
592.00	0.000	0.001	0.002	0.001	0.001	0.002	0.000	0.000	0.002	0.000	0.000	0.000	0.000	-0.000	0.000	0.000
593.00	0.000	0.001	0.002	0.001	0.001	0.002	0.000	0.001	0.002	0.000	0.000	0.000	0.000	-0.000	0.000	0.000
594.00	0.000	0.001	0.002	0.001	0.001	0.002	0.000	0.000	0.002	0.000	0.000	0.000	0.001	-0.000	0.000	0.000
595.00	0.000	0.001	0.002	0.001	0.001	0.002	0.000	0.000	0.001	0.000	0.000	0.000	0.000	-0.000	0.000	0.000
596.00	0.000	0.001	0.002	0.001	0.001	0.002	0.000	0.001	0.002	0.000	0.000	0.000	0.000	-0.000	0.000	0.000
597.00	0.000	0.001	0.002	0.001	0.001	0.002	0.000	0.000	0.001	0.000	0.000	0.000	0.000	-0.000	0.000	0.000
598.00	0.000	0.001	0.002	0.001	0.001	0.002	0.000	0.000	0.001	0.000	0.000	0.000	0.000	-0.000	0.000	0.000
599.00	0.000	0.001	0.002	0.001	0.001	0.002	0.000	0.000	0.001	0.000	0.000	0.000	0.000	-0.000	0.000	0.000
600.00	-0.000	0.001	0.002	0.001	0.001	0.002	0.000	0.000	0.001	0.000	0.000	0.000	0.000	-0.000	0.000	0.000
601.00	0.000	0.001	0.002	0.001	0.001	0.002	0.000	0.000	0.001	0.000	0.000	0.000	0.000	-0.000	0.000	0.000
602.00	0.000	0.001	0.002	0.001	0.001	0.002	0.000	0.000	0.001	0.000	0.000	0.000	0.000	-0.000	0.000	0.000
603.00	0.000	0.001	0.002	0.001	0.001	0.002	0.000	0.000	0.001	0.000	0.000	0.000	0.000	-0.000	0.000	0.000
604.00	0.000	0.001	0.002	0.001	0.001	0.002	0.000	0.000	0.001	0.000	0.000	0.000	0.000	-0.000	-0.000	0.000
605.00	0.000	0.001	0.002	0.001	0.001	0.002	0.000	0.000	0.001	0.000	0.000	0.000	0.000	-0.000	0.000	0.000
606.00	0.000	0.001	0.002	0.001	0.001	0.002	0.000	0.000	0.001	0.000	0.000	0.000	0.000	-0.000	0.000	0.000
607.00	0.000	0.001	0.002	0.001	0.001	0.002	0.000	0.000	0.001	0.000	0.000	0.000	0.000	-0.000	0.000	0.000
608.00	0.000	0.001	0.002	0.001	0.001	0.002	0.000	0.000	0.001	0.000	0.000	0.000	0.000	-0.000	0.000	0.000
609.00	0.000	0.001	0.002	0.001	0.001	0.002	0.000	0.000	0.001	0.000	0.000	0.000	0.000	-0.000	-0.000	0.000
610.00	0.000	0.001	0.002	0.001	0.001	0.002	0.000	0.000	0.001	0.000	0.000	0.000	0.000	-0.000	0.000	0.000
611.00	0.000	0.001	0.002	0.001	0.001	0.002	0.000	0.000	0.001	0.000	0.000	0.000	0.000	-0.000	-0.000	0.000
612.00	0.000	0.001	0.002	0.001	0.001	0.002	0.000	0.000	0.001	0.000	0.000	0.000	0.000	-0.000	0.000	0.000
613.00	0.000	0.001	0.002	0.001	0.001	0.002	0.000	0.000	0.001	0.000	0.000	0.000	0.000	-0.000	0.000	0.000
614.00	0.000	0.001	0.002	0.001	0.001	0.002	0.000	0.000	0.001	0.000	0.000	0.000	0.000	-0.000	-0.000	0.000
615.00	0.000	0.001	0.002	0.001	0.001	0.002	0.000	0.000	0.001	0.000	0.000	0.000	0.000	-0.000	0.000	0.000
616.00	0.000	0.001	0.002	0.001	0.001	0.002	0.000	0.000	0.001	0.000	0.000	0.000	0.000	-0.000	0.000	0.000
617.00	0.000	0.001	0.002	0.001	0.001	0.002	0.000	0.000	0.001	0.000	0.000	0.000	0.000	-0.000	0.000	-0.000
618.00	0.000	0.001	0.002	0.001	0.001	0.002	0.000	0.000	0.001	0.000	0.000	0.000	0.000	-0.000	0.000	0.000
619.00	0.000	0.001	0.002	0.001	0.001	0.002	0.000	0.000	0.001	0.000	0.000	0.000	0.000	-0.000	0.000	-0.000
620.00	0.000	0.001	0.002	0.001	0.001	0.002	0.000	0.000	0.001	0.000	0.000	0.000	0.000	-0.000	-0.000	-0.000
621.00	0.000	0.001	0.002	0.001	0.001	0.002	0.000	0.000	0.001	0.000	0.000	0.000	0.000	-0.000	0.000	0.000
622.00	0.000	0.001	0.002	0.001	0.001	0.002	0.000	0.000	0.001	0.000	0.000	0.000	0.000	-0.000	0.000	0.000
623.00	0.000	0.001	0.002	0.001	0.001	0.002	0.000	0.000	0.001	0.000	0.000	0.000	0.000	-0.000	0.000	0.000
624.00	0.000	0.001	0.002	0.001	0.001	0.002	0.000	0.000	0.001	0.000	0.000	0.000	0.000	-0.000	-0.000	0.000
625.00	0.000	0.000	0.002	0.001	0.001	0.002	0.000	0.000	0.001	-0.000	0.000	0.000	0.000	-0.000	-0.000	-0.000
626.00	0.000	0.001	0.002	0.001	0.001	0.002	0.000	0.000	0.001	0.000	0.000	0.000	0.000	-0.000	-0.000	-0.000
627.00	0.000	0.000	0.002	0.001	0.001	0.002	0.000	0.000	0.001	-0.000	0.000	0.000	0.000	-0.000	-0.000	0.000
628.00	0.000	0.000	0.002	0.001	0.001	0.002	0.000	0.000	0.001	-0.000	0.000	0.000	0.000	-0.000	-0.000	-0.000
629.00	0.000	0.000	0.002	0.001	0.001	0.002	0.000	0.000	0.001	-0.000	0.000	0.000	0.000	-0.000	-0.000	-0.000
630.00	0.000	0.000	0.002	0.001	0.001	0.002	0.000	0.000	0.001	-0.000	0.000	0.000	0.000	-0.000	-0.000	0.000
631.00	0.000	0.000	0.002	0.001	0.001	0.002	0.000	0.000	0.001	-0.000	0.000	0.000	0.000	-0.000	-0.000	0.000
632.00	0.000	0.001	0.002	0.001	0.001	0.002	0.000	0.000	0.001	-0.000	0.000	0.000	0.000	-0.000	-0.000	0.000
633.00	0.000	0.001	0.002	0.001	0.001	0.002	0.000	0.000	0.001	0.000	0.000	0.000	0.000	-0.000	-0.000	0.000
634.00	0.000	0.000	0.002	0.001	0.001	0.002	0.000	0.000	0.001	0.000	0.000	0.000	0.000	-0.000	-0.000	0.000
635.00	0.000	0.000	0.002	0.001	0.001	0.002	0.000	0.000	0.001	0.000	0.000	-0.000	0.000	-0.000	-0.000	0.000
636.00	0.000	0.000	0.002	0.001	0.001	0.002	0.000	0.000	0.001	-0.000	0.000	-0.000	0.000	-0.000	-0.000	-0.000
637.00	0.000	0.000	0.002	0.000	0.001	0.002	0.000	0.000	0.001	-0.000	0.000	-0.000	0.000	-0.000	-0.000	-0.000
638.00	-0.000	0.000	0.002	0.000	0.001	0.001	-0.000	0.000	0.001	-0.000	0.000	-0.000	-0.000	-0.001	-0.000	-0.000
639.00	-0.000	0.000	0.002	0.000	0.001	0.002	-0.000	0.000	0.001	-0.000	0.000	-0.000	-0.000	-0.001	-0.000	-0.000
640.00	0.000	0.000	0.002	0.001	0.001	0.002	0.000	0.000	0.001	-0.000	0.000	-0.000	0.000	-0.000	-0.000	-0.000
641.00	0.000	0.000	0.002	0.000	0.001	0.002	0.000	0.000	0.001	-0.000	0.000	-0.000	0.000	-0.000	-0.000	-0.000
642.00	0.000	0.000	0.002	0.000	0.001	0.002	0.000	0.000	0.001	-0.000	0.000	-0.000	0.000	-0.000	-0.000	0.000
643.00	-0.000	0.000	0.002	0.000	0.001	0.001	0.000	0.000	0.001	-0.000	0.000	-0.000	0.000	-0.001	-0.000	0.000
644.00	0.000	0.000	0.002	0.001	0.001	0.002	0.000	0.000	0.001	-0.000	0.000	-0.000	0.000	-0.000	-0.000	0.000
645.00	-0.000	0.000	0.002	0.000	0.001	0.001	-0.000	0.000	0.001	-0.000	0.000	-0.000	0.000	-0.000	-0.000	-0.000
646.00	0.000	0.000	0.002	0.000	0.001	0.001	0.000	0.000	0.001	-0.000	0.000	-0.000	0.000	-0.000	-0.000	0.000
647.00	0.000	0.000	0.002	0.001	0.001	0.002	0.000	0.000	0.001	-0.000	0.000	-0.000	0.000	-0.000	-0.000	0.000
648.00	0.000	0.000	0.002	0.001	0.001	0.002	0.000	0.000	0.001	-0.000	0.000	-0.000	0.000	-0.000	-0.000	0.000
649.00	0.000	0.001	0.002	0.001	0.001	0.002	0.000	0.000	0.001	0.000	0.000	0.000	0.000	-0.000	-0.000	0.000
650.00	0.000	0.001	0.002	0.001	0.001	0.002	0.000	0.000	0.001	0.000	0.000	-0.000	0.000	-0.000	-0.000	0.000
651.00	0.000	0.001	0.002	0.000	0.001	0.002	0.000	0.000	0.001	0.000	0.000	0.000	0.000	-0.000	-0.000	0.000
652.00	0.000	0.001	0.002	0.000	0.001	0.002	0.000	0.000	0.001	0.000	0.000	0.000	0.000	-0.000	-0.000	0.000
653.00	0.000	0.001	0.002	0.001	0.001	0.001	0.000	0.000	0.001	0.000	0.000	-0.000	0.000	-0.000	-0.000	0.000
654.00	0.000	0.001	0.002	0.001	0.001	0.002	0.000	0.000	0.001	0.000	0.000	0.000	0.000	-0.000	0.000	0.000
655.00	0.000	0.001	0.002	0.001	0.001	0.002	0.000	0.000	0.001	0.000	0.000	-0.000	0.000	-0.000	0.000	0.000
656.00	0.000	0.001	0.002	0.001	0.001	0.002	0.000	0.000	0.001	0.000	0.000	-0.000	0.000	-0.000	-0.000	0.000
657.00	0.000	0.001	0.002	0.001	0.001	0.002	0.000	0.000	0.001	0.000	0.000	-0.000	0.000	-0.000	-0.000	0.000
658.00	0.000	0.000	0.002	0.001	0.001	0.001	0.000	0.000	0.001	-0.000	0.000	-0.000	0.000	-0.000	-0.000	0.000
659.00	0.000	0.000	0.002	0.001	0.001	0.001	0.000	0.000	0.001	0.000	0.000	-0.000	0.000	-0.000	-0.000	0.000
660.00	0.000	0.001	0.002	0.001	0.001	0.002	0.000	0.000	0.001	0.000	0.000	-0.000	0.000	-0.000	-0.000	0.000
661.00	0.000	0.001	0.002	0.001	0.001	0.002	0.000	0.000	0.001	0.000	0.000	0.000	0.000	-0.000	-0.000	0.000
662.00	0.000	0.001	0.002	0.001	0.001	0.002	0.000	0.000	0.001	0.000	0.000	0.000	0.000	-0.000	-0.000	0.000
663.00	0.000	0.001	0.002	0.000	0.001	0.001	0.000	0.000	0.001	0.000	0.000	-0.000	0.000	-0.000	-0.000	0.000
664.00	0.000	0.001	0.002	0.001	0.001	0.001	0.000	0.000	0.001	0.000	0.000	-0.000	0.000	-0.000	0.000	0.000
665.00	0.000	0.001	0.002	0.001	0.001	0.002	0.000	0.000	0.001	0.000	0.000	-0.000	0.000	-0.000	-0.000	0.000
666.00	0.000	0.001	0.002	0.001	0.001	0.002	0.000	0.000	0.001	0.000	0.000	-0.000	0.000	-0.000	-0.000	0.000
667.00	0.000	0.001	0.002	0.000	0.001	0.001	0.000	0.000	0.001	0.000	0.000	-0.000	0.000	-0.000	-0.000	0.000
668.00	0.000	0.001	0.002	0.001	0.001	0.002	0.000	0.000	0.001	0.000	0.000	0.000	0.000	-0.000	-0.000	0.000
669.00	0.000	0.001	0.002	0.001	0.001	0.002	0.000	0.000	0.001	0.000	0.000	0.000	0.000	-0.000	0.000	0.000
670.00	0.000	0.001	0.002	0.001	0.001	0.002	0.000	0.000	0.001	0.000	0.000	0.000	0.000	-0.000	0.000	0.000
671.00	0.000	0.001	0.002	0.000	0.001	0.002	0.000	0.000	0.001	0.000	0.000	0.000	0.000	-0.000	-0.000	0.000
672.00	0.000	0.001	0.002	0.001	0.001	0.002	0.000	0.000	0.001	0.000	0.000	-0.000	0.000	-0.000	-0.000	0.000
673.00	0.000	0.001	0.002	0.001	0.001	0.002	0.000	0.000	0.001	0.000	0.000	-0.000	0.000	-0.000	-0.000	0.000
674.00	0.000	0.001	0.002	0.001	0.001	0.002	0.000	0.000	0.001	0.000	0.000	-0.000	0.000	-0.000	0.000	0.000
675.00	0.000	0.001	0.002	0.001	0.001	0.002	0.000	0.000	0.001	0.000	0.000	0.000	0.000	-0.000	0.000	0.000
676.00	0.000	0.001	0.002	0.001	0.001	0.002	0.000	0.000	0.001	0.000	0.000	0.000	0.000	-0.000	-0.000	0.000
677.00	0.000	0.001	0.002	0.001	0.001	0.002	0.000	0.000	0.001	0.000	0.000	-0.000	0.000	-0.000	-0.000	0.000
678.00	0.000	0.001	0.002	0.000	0.001	0.001	0.000	0.000	0.001	0.000	0.000	-0.000	0.000	-0.000	-0.000	0.000
679.00	0.000	0.001	0.002	0.000	0.001	0.001	0.000	0.000	0.001	0.000	0.000	-0.000	0.000	-0.000	-0.000	0.000
680.00	0.000	0.001	0.002	0.001	0.001	0.001	0.000	0.000	0.001	0.000	0.000	0.000	0.000	-0.000	-0.000	0.000
681.00	0.000	0.001	0.002	0.001	0.001	0.002	0.000	0.000	0.001	0.000	0.000	0.000	0.000	-0.000	-0.000	0.000
682.00	0.000	0.001	0.002	0.001	0.001	0.002	0.000	0.000	0.001	0.000	0.000	0.000	0.000	-0.000	0.000	0.000
683.00	0.000	0.001	0.002	0.000	0.001	0.001	0.000	0.000	0.001	0.000	0.000	-0.000	0.000	-0.000	-0.000	0.000
684.00	0.000	0.001	0.002	0.000	0.001	0.001	0.000	0.000	0.001	0.000	0.000	-0.000	0.000	-0.000	-0.000	0.000
685.00	0.000	0.001	0.002	0.001	0.001	0.002	0.000	0.000	0.001	0.000	0.000	0.000	0.000	-0.000	0.000	0.000
686.00	0.000	0.001	0.002	0.001	0.001	0.001	0.000	0.000	0.001	0.000	0.000	-0.000	0.000	-0.000	-0.000	0.000
687.00	0.000	0.001	0.002	0.001	0.001	0.001	0.000	0.000	0.001	0.000	0.000	-0.000	0.000	-0.000	-0.000	0.000
688.00	0.000	0.001	0.002	0.001	0.001	0.001	0.000	0.000	0.001	0.000	0.000	-0.000	0.000	-0.000	-0.000	0.000
689.00	0.000	0.001	0.002	0.001	0.001	0.001	0.000	0.000	0.001	0.000	0.000	-0.000	0.000	-0.000	0.000	0.000
690.00	0.000	0.001	0.002	0.001	0.001	0.001	0.000	0.000	0.001	0.000	0.000	-0.000	0.000	-0.000	-0.000	0.000
691.00	0.000	0.000	0.002	0.000	0.001	0.001	-0.000	0.000	0.001	-0.000	0.000	-0.000	0.000	-0.000	-0.000	0.000
692.00	0.000	0.000	0.002	0.000	0.001	0.001	0.000	0.000	0.001	-0.000	0.000	-0.000	0.000	-0.000	-0.000	0.000
693.00	0.000	0.000	0.002	0.000	0.001	0.001	-0.000	0.000	0.001	-0.000	-0.000	-0.000	0.000	-0.000	-0.000	0.000
694.00	0.000	0.000	0.002	0.000	0.001	0.001	0.000	0.000	0.001	0.000	0.000	-0.000	0.000	-0.000	-0.000	0.000
695.00	0.000	0.000	0.002	0.000	0.001	0.001	0.000	0.000	0.001	0.000	0.000	-0.000	0.000	-0.000	-0.000	0.000
696.00	0.000	0.000	0.002	0.000	0.001	0.001	-0.000	0.000	0.001	-0.000	0.000	-0.000	0.000	-0.000	-0.000	0.000
697.00	0.000	0.000	0.002	0.001	0.001	0.001	0.000	0.000	0.001	0.000	0.000	-0.000	0.000	-0.000	-0.000	0.000
698.00	0.000	0.000	0.002	0.001	0.001	0.001	0.000	0.000	0.001	0.000	0.000	-0.000	0.000	-0.000	-0.000	0.000
699.00	0.000	0.000	0.002	0.001	0.001	0.001	0.000	0.000	0.001	0.000	0.000	-0.000	0.000	-0.000	-0.000	0.000
700.00	0.000	0.000	0.002	0.001	0.001	0.001	0.000	0.000	0.001	0.000	0.000	-0.000	0.000	-0.000	-0.000	0.000
701.00	0.000	0.001	0.002	0.001	0.001	0.001	0.000	0.000	0.001	0.000	0.000	0.000	0.000	-0.000	-0.000	0.000
702.00	0.000	0.001	0.002	0.001	0.001	0.001	0.000	0.000	0.001	0.000	0.000	-0.000	0.000	-0.000	-0.000	0.000
703.00	0.000	0.000	0.001	0.001	0.001	0.001	0.000	0.000	0.001	-0.000	0.000	-0.000	0.000	-0.000	-0.000	0.000
704.00	0.000	0.000	0.002	0.001	0.001	0.001	0.000	0.000	0.001	-0.000	0.000	-0.000	0.000	-0.000	-0.000	0.000
705.00	0.000	0.000	0.002	0.001	0.001	0.001	0.000	0.000	0.001	0.000	0.000	-0.000	0.000	-0.000	-0.000	0.000
706.00	0.000	0.000	0.002	0.001	0.001	0.001	0.000	0.000	0.001	0.000	0.000	-0.000	0.000	-0.000	-0.000	0.000
707.00	0.000	0.000	0.002	0.001	0.001	0.001	0.000	0.000	0.001	0.000	0.000	-0.000	0.000	-0.000	-0.000	0.000
708.00	0.000	0.000	0.001	0.001	0.001	0.001	0.000	0.000	0.001	0.000	0.000	-0.000	0.000	-0.000	-0.000	0.000
709.00	0.000	0.000	0.001	0.001	0.001	0.001	-0.000	0.000	0.001	-0.000	0.000	-0.000	0.000	-0.000	-0.000	0.000
710.00	0.000	0.000	0.001	0.000	0.001	0.001	-0.000	0.000	0.001	-0.000	0.000	-0.000	0.000	-0.001	-0.000	0.000
711.00	0.000	0.000	0.001	0.001	0.001	0.001	-0.000	0.000	0.001	-0.000	0.000	-0.000	0.000	-0.001	-0.000	0.000
712.00	0.000	0.000	0.002	0.001	0.001	0.001	-0.000	0.000	0.001	-0.000	0.000	-0.000	0.000	-0.000	-0.000	0.000
713.00	0.000	0.000	0.002	0.001	0.001	0.001	-0.000	0.000	0.001	-0.000	0.000	-0.000	0.000	-0.000	-0.000	0.000
714.00	0.000	0.000	0.002	0.000	0.001	0.001	-0.000	0.000	0.001	-0.000	0.000	-0.000	0.000	-0.000	-0.000	0.000
715.00	-0.000	0.000	0.001	0.000	0.001	0.001	-0.000	-0.000	0.001	-0.000	-0.000	-0.000	0.000	-0.001	-0.000	-0.000
716.00	0.000	0.000	0.001	0.000	0.001	0.001	-0.000	0.000	0.001	-0.000	0.000	-0.000	0.000	-0.001	-0.000	-0.000
717.00	0.000	0.000	0.002	0.000	0.001	0.001	0.000	0.000	0.001	-0.000	0.000	-0.000	0.000	-0.000	-0.000	-0.000
718.00	0.000	0.000	0.002	0.001	0.001	0.001	0.000	0.000	0.001	-0.000	0.000	-0.000	0.000	-0.000	-0.000	0.000
719.00	0.000	0.000	0.002	0.000	0.001	0.001	-0.000	0.000	0.001	-0.000	0.000	-0.000	0.000	-0.000	-0.000	0.000
720.00	0.000	0.000	0.001	0.000	0.001	0.001	-0.000	-0.000	0.001	-0.000	0.000	-0.000	0.000	-0.000	-0.000	-0.000
721.00	0.000	0.000	0.001	0.000	0.001	0.001	-0.000	0.000	0.001	-0.000	0.000	-0.000	0.000	-0.000	-0.000	-0.000
722.00	0.000	0.000	0.001	0.000	0.001	0.001	-0.000	0.000	0.001	-0.000	0.000	-0.000	0.000	-0.001	-0.000	-0.000
723.00	0.000	0.000	0.001	0.000	0.001	0.001	-0.000	-0.000	0.001	-0.000	-0.000	-0.000	0.000	-0.001	-0.000	-0.000
724.00	0.000	0.000	0.001	0.000	0.001	0.001	-0.000	-0.000	0.001	-0.000	-0.000	-0.000	-0.000	-0.001	-0.000	-0.000
725.00	0.000	0.000	0.001	0.000	0.001	0.001	-0.000	0.000	0.001	-0.000	0.000	-0.000	0.000	-0.000	-0.000	-0.000
726.00	0.000	0.000	0.001	0.000	0.001	0.001	-0.000	-0.000	0.001	-0.000	0.000	-0.000	0.000	-0.001	-0.000	-0.000
727.00	0.000	0.000	0.002	0.000	0.001	0.001	-0.000	0.000	0.001	-0.000	0.000	-0.000	0.000	-0.000	-0.000	-0.000
728.00	0.000	0.000	0.001	0.000	0.001	0.001	-0.000	0.000	0.001	-0.000	0.000	-0.000	0.000	-0.001	-0.000	-0.000
729.00	0.000	0.000	0.001	0.000	0.001	0.001	-0.000	-0.000	0.001	-0.000	-0.000	-0.000	0.000	-0.001	-0.000	-0.000
730.00	-0.000	0.000	0.001	0.000	0.001	0.001	-0.000	-0.000	0.001	-0.000	-0.000	-0.000	-0.000	-0.001	-0.000	-0.000
731.00	0.000	0.000	0.001	0.000	0.001	0.001	-0.000	-0.000	0.001	-0.000	-0.000	-0.000	0.000	-0.001	-0.000	-0.000
732.00	-0.000	0.000	0.001	0.000	0.001	0.001	-0.000	-0.000	0.001	-0.000	-0.000	-0.000	0.000	-0.001	-0.000	-0.000
733.00	0.000	0.000	0.002	0.001	0.001	0.001	-0.000	0.000	0.001	-0.000	0.000	-0.000	0.000	-0.000	-0.000	0.000
734.00	-0.000	0.000	0.001	0.000	0.001	0.001	-0.000	-0.000	0.001	-0.000	-0.000	-0.000	0.000	-0.001	-0.000	-0.000
735.00	-0.000	0.000	0.001	0.000	0.001	0.001	-0.000	-0.000	0.001	-0.000	-0.000	-0.000	0.000	-0.001	-0.000	-0.000
736.00	0.000	0.000	0.001	0.000	0.001	0.001	-0.000	-0.000	0.001	-0.000	-0.000	-0.000	0.000	-0.001	-0.000	-0.000
737.00	0.000	0.000	0.001	0.000	0.001	0.001	-0.000	-0.000	0.001	-0.000	-0.000	-0.000	0.000	-0.001	-0.000	-0.000
738.00	0.000	0.000	0.001	0.000	0.001	0.001	-0.000	-0.000	0.001	-0.000	-0.000	-0.000	0.000	-0.001	-0.000	-0.000
739.00	-0.000	0.000	0.001	0.000	0.001	0.001	-0.000	-0.000	0.001	-0.000	-0.000	-0.000	0.000	-0.001	-0.000	-0.000
740.00	0.000	0.000	0.001	0.000	0.001	0.001	-0.000	-0.000	0.001	-0.000	-0.000	-0.000	0.000	-0.001	-0.000	-0.000
741.00	0.000	0.000	0.001	0.000	0.001	0.001	-0.000	-0.000	0.001	-0.000	-0.000	-0.000	0.000	-0.001	-0.000	-0.000
742.00	-0.000	0.000	0.001	0.000	0.001	0.001	-0.000	-0.000	0.001	-0.000	-0.000	-0.000	0.000	-0.001	-0.000	-0.000
743.00	0.000	0.000	0.001	0.000	0.001	0.001	-0.000	-0.000	0.001	-0.000	0.000	-0.000	0.000	-0.001	-0.000	-0.000
744.00	0.000	0.000	0.001	0.000	0.001	0.001	-0.000	-0.000	0.001	-0.000	-0.000	-0.000	0.000	-0.000	-0.000	-0.000
745.00	0.000	0.000	0.001	0.000	0.001	0.001	-0.000	-0.000	0.001	-0.000	0.000	-0.000	0.000	-0.001	-0.000	0.000
746.00	-0.000	0.000	0.001	0.000	0.001	0.001	-0.000	-0.000	0.001	-0.000	0.000	-0.000	0.000	-0.001	-0.000	-0.000
747.00	-0.000	0.000	0.001	0.000	0.001	0.001	-0.000	-0.000	0.001	-0.000	-0.000	-0.000	0.000	-0.001	-0.000	-0.000
748.00	-0.000	0.000	0.001	0.000	0.001	0.001	-0.000	-0.000	0.001	-0.000	-0.000	-0.000	0.000	-0.001	-0.000	-0.000
749.00	0.000	0.000	0.001	0.000	0.001	0.001	-0.000	0.000	0.001	-0.000	-0.000	-0.000	0.000	-0.000	-0.000	-0.000
750.00	-0.000	0.000	0.001	0.000	0.001	0.001	-0.000	0.000	0.001	-0.000	-0.000	-0.000	0.000	-0.001	-0.000	-0.000
751.00	-0.000	0.000	0.001	0.000	0.001	0.001	-0.000	0.000	0.001	-0.000	-0.000	-0.000	0.000	-0.000	-0.000	0.000
752.00	0.000	0.000	0.001	0.000	0.001	0.001	-0.000	0.000	0.001	-0.000	-0.000	-0.000	0.000	-0.000	-0.000	0.000
753.00	-0.000	0.000	0.001	0.000	0.001	0.001	-0.000	0.000	0.001	-0.000	-0.000	-0.000	0.000	-0.001	-0.000	0.000
754.00	-0.000	0.000	0.001	0.000	0.001	0.001	-0.000	-0.000	0.001	-0.000	-0.000	-0.000	0.000	-0.001	-0.000	-0.000
755.00	-0.000	0.000	0.001	0.000	0.001	0.001	-0.000	0.000	0.001	-0.000	-0.000	-0.000	0.000	-0.000	-0.000	-0.000
756.00	-0.000	0.000	0.001	0.000	0.001	0.001	-0.000	0.000	0.001	-0.000	-0.000	-0.000	0.000	-0.000	-0.000	-0.000
757.00	-0.000	0.000	0.001	0.000	0.001	0.001	-0.000	0.000	0.001	-0.000	0.000	-0.000	0.000	-0.000	-0.000	-0.000
758.00	-0.000	0.000	0.001	0.000	0.001	0.001	-0.000	0.000	0.001	-0.000	0.000	-0.000	0.000	-0.000	-0.000	0.000
759.00	0.000	0.001	0.002	0.001	0.001	0.001	0.000	0.000	0.001	0.000	0.000	0.000	0.000	-0.000	0.000	0.000
760.00	0.001	0.002	0.003	0.002	0.002	0.003	0.001	0.001	0.002	0.001	0.001	0.001	0.002	0.001	0.001	0.001
761.00	0.000	0.001	0.002	0.001	0.001	0.001	0.000	0.000	0.001	0.000	0.000	0.000	0.000	-0.000	0.000	0.000
762.00	-0.000	0.000	0.001	0.000	0.001	0.001	-0.000	0.000	0.001	-0.000	-0.000	-0.000	0.000	-0.000	-0.000	0.000
763.00	-0.000	0.000	0.001	0.000	0.001	0.001	-0.000	0.000	0.001	-0.000	-0.000	-0.000	0.000	-0.001	-0.000	0.000
764.00	0.000	0.000	0.001	0.000	0.001	0.001	-0.000	0.000	0.001	-0.000	-0.000	-0.000	0.000	-0.000	-0.000	0.000
765.00	-0.000	0.000	0.001	0.000	0.001	0.001	-0.000	0.000	0.001	-0.000	-0.000	-0.000	0.000	-0.001	-0.000	-0.000
766.00	-0.000	0.000	0.001	0.000	0.001	0.001	-0.000	0.000	0.001	-0.000	-0.000	-0.000	0.000	-0.001	-0.000	-0.000
767.00	-0.000	0.000	0.001	0.000	0.001	0.001	-0.000	0.000	0.001	-0.000	-0.000	-0.000	0.000	-0.000	-0.000	0.000
768.00	-0.000	0.000	0.001	0.000	0.001	0.001	-0.000	0.000	0.001	-0.000	-0.000	-0.000	0.000	-0.000	-0.000	0.000
769.00	0.000	0.000	0.001	0.000	0.001	0.001	-0.000	0.000	0.001	-0.000	0.000	-0.000	0.000	-0.000	-0.000	0.000
770.00	-0.000	0.000	0.001	0.000	0.001	0.001	-0.000	0.000	0.001	-0.000	-0.000	-0.000	0.000	-0.000	-0.000	0.000
771.00	-0.000	0.000	0.001	0.000	0.001	0.001	-0.000	0.000	0.001	-0.000	-0.000	-0.000	0.000	-0.000	-0.000	0.000
772.00	-0.000	0.000	0.001	0.000	0.001	0.001	-0.000	0.000	0.001	-0.000	-0.000	-0.000	0.000	-0.000	-0.000	0.000
773.00	-0.000	0.000	0.001	0.000	0.001	0.001	-0.000	0.000	0.001	-0.000	-0.000	-0.000	0.000	-0.000	-0.000	0.000
774.00	-0.000	0.000	0.001	0.000	0.001	0.001	-0.000	0.000	0.001	-0.000	-0.000	-0.000	0.000	-0.000	-0.000	0.000
775.00	0.000	0.000	0.001	0.001	0.001	0.001	-0.000	0.000	0.001	-0.000	-0.000	-0.000	0.000	-0.000	-0.000	0.000
776.00	-0.000	0.000	0.001	0.000	0.001	0.001	-0.000	0.000	0.001	-0.000	-0.000	-0.000	0.000	-0.000	-0.000	0.000
777.00	-0.000	0.000	0.001	0.000	0.001	0.001	-0.000	0.000	0.001	-0.000	-0.000	-0.000	0.000	-0.000	-0.000	0.000
778.00	-0.000	0.000	0.001	0.000	0.001	0.001	-0.000	0.000	0.001	-0.000	-0.000	-0.000	0.000	-0.000	-0.000	0.000
779.00	0.000	0.000	0.001	0.000	0.001	0.001	-0.000	0.000	0.001	-0.000	-0.000	-0.000	0.000	-0.000	-0.000	0.000
780.00	0.000	0.000	0.001	0.000	0.001	0.001	-0.000	0.000	0.001	-0.000	-0.000	-0.000	0.000	-0.000	-0.000	0.000
781.00	0.000	0.000	0.001	0.000	0.001	0.001	-0.000	0.000	0.001	0.000	-0.000	-0.000	0.000	-0.000	-0.000	0.000
782.00	-0.000	0.000	0.001	0.000	0.001	0.001	-0.000	0.000	0.001	0.000	-0.000	-0.000	0.000	-0.000	-0.000	0.000
783.00	0.000	0.000	0.001	0.000	0.001	0.001	0.000	0.000	0.001	0.000	-0.000	-0.000	0.000	-0.000	-0.000	0.000
784.00	0.000	0.000	0.001	0.000	0.001	0.001	-0.000	0.000	0.001	0.000	-0.000	-0.000	0.000	-0.000	-0.000	0.000
785.00	0.000	0.000	0.001	0.000	0.001	0.001	-0.000	0.000	0.001	0.000	-0.000	-0.000	0.000	-0.000	-0.000	0.000
786.00	-0.000	0.000	0.001	0.000	0.001	0.001	-0.000	0.000	0.001	0.000	-0.000	-0.000	0.000	-0.000	-0.000	0.000
787.00	-0.000	0.000	0.001	0.000	0.001	0.001	-0.000	0.000	0.001	0.000	-0.000	-0.000	0.000	-0.000	-0.000	0.000
788.00	-0.000	0.000	0.001	0.000	0.001	0.001	-0.000	0.000	0.001	0.000	-0.000	-0.000	0.000	-0.000	-0.000	0.000
789.00	0.000	0.000	0.001	0.000	0.001	0.001	-0.000	0.000	0.001	0.000	-0.000	-0.000	0.000	-0.000	-0.000	0.000
790.00	0.000	0.000	0.001	0.000	0.001	0.001	-0.000	0.000	0.001	0.000	-0.000	-0.000	0.000	-0.000	-0.000	0.000
791.00	-0.000	0.000	0.001	0.000	0.001	0.001	-0.000	0.000	0.001	-0.000	-0.000	-0.000	0.000	-0.000	-0.000	0.000
792.00	-0.000	0.000	0.001	0.000	0.001	0.001	-0.000	0.000	0.001	0.000	-0.000	-0.000	0.000	-0.000	-0.000	0.000
793.00	-0.000	0.000	0.001	0.000	0.001	0.001	-0.000	0.000	0.001	0.000	0.000	-0.000	0.000	-0.000	-0.000	0.000
794.00	-0.000	0.000	0.001	0.000	0.001	0.001	-0.000	0.000	0.001	-0.000	0.000	-0.000	0.000	-0.000	-0.000	0.000
795.00	-0.000	0.000	0.001	0.000	0.001	0.001	-0.000	0.000	0.001	-0.000	-0.000	-0.000	0.000	-0.000	-0.000	0.000
796.00	-0.000	0.000	0.001	0.000	0.001	0.001	-0.000	0.000	0.001	0.000	0.000	-0.000	0.000	-0.000	-0.000	0.000
797.00	-0.000	0.000	0.001	0.000	0.001	0.001	-0.000	0.000	0.001	0.000	-0.000	-0.000	0.000	-0.000	-0.000	0.000
798.00	-0.000	0.000	0.001	0.000	0.001	0.001	-0.000	0.000	0.001	0.000	-0.000	-0.000	0.000	-0.000	-0.000	0.000
799.00	0.000	0.000	0.001	0.000	0.001	0.001	-0.000	0.000	0.001	0.000	0.000	-0.000	0.000	-0.000	-0.000	0.000
800.00	0.000	0.000	0.001	0.000	0.001	0.001	-0.000	0.000	0.001	0.000	0.000	-0.000	0.000	-0.000	-0.000	0.000
801.00	0.000	0.000	0.001	0.000	0.001	0.001	-0.000	0.000	0.001	0.000	-0.000	-0.000	0.000	-0.000	-0.000	0.000
802.00	0.000	0.000	0.001	0.000	0.001	0.001	-0.000	0.000	0.001	0.000	-0.000	-0.000	0.000	-0.000	-0.000	0.000
803.00	-0.000	0.000	0.001	0.000	0.001	0.001	-0.000	0.000	0.001	0.000	-0.000	-0.000	0.000	-0.000	-0.000	0.000
804.00	0.000	0.000	0.001	0.000	0.001	0.001	-0.000	0.000	0.001	0.000	0.000	-0.000	0.000	-0.000	-0.000	0.000
805.00	0.000	0.000	0.001	0.000	0.001	0.001	-0.000	0.000	0.001	0.000	0.000	-0.000	0.000	-0.000	-0.000	0.000
806.00	0.000	0.000	0.001	0.001	0.001	0.001	-0.000	0.000	0.001	0.000	0.000	-0.000	0.000	-0.000	-0.000	0.000
807.00	0.000	0.000	0.001	0.001	0.001	0.001	-0.000	0.000	0.001	0.000	0.000	-0.000	0.000	-0.000	-0.000	0.000
808.00	0.000	0.000	0.001	0.000	0.001	0.001	0.000	0.000	0.001	0.000	-0.000	-0.000	0.000	-0.000	-0.000	0.000
809.00	0.000	0.000	0.001	0.000	0.001	0.001	-0.000	0.000	0.001	0.000	-0.000	-0.000	0.000	-0.000	-0.000	0.000
810.00	0.000	0.000	0.001	0.000	0.001	0.001	-0.000	0.000	0.001	0.000	-0.000	-0.000	0.000	-0.000	-0.000	0.000
811.00	0.000	0.000	0.001	0.000	0.001	0.001	-0.000	0.000	0.001	0.000	-0.000	-0.000	0.000	-0.000	-0.000	0.000
812.00	0.000	0.000	0.001	0.000	0.001	0.001	0.000	0.000	0.001	0.000	-0.000	-0.000	0.000	-0.000	-0.000	0.000
813.00	0.000	0.000	0.001	0.001	0.001	0.001	-0.000	0.000	0.001	0.000	-0.000	-0.000	0.000	-0.000	-0.000	0.000
814.00	0.000	0.000	0.001	0.000	0.001	0.001	-0.000	0.000	0.001	-0.000	-0.000	-0.000	0.000	-0.000	-0.000	0.000
815.00	0.000	0.000	0.001	0.000	0.001	0.001	-0.000	0.000	0.001	0.000	-0.000	-0.000	0.000	-0.000	-0.000	0.000
816.00	0.000	0.000	0.001	0.001	0.001	0.001	0.000	0.000	0.001	0.000	-0.000	-0.000	0.000	-0.000	-0.000	0.000
817.00	0.000	0.000	0.001	0.000	0.001	0.001	-0.000	0.000	0.001	0.000	-0.000	-0.000	0.000	-0.000	-0.000	0.000
818.00	0.000	0.000	0.001	0.000	0.001	0.001	-0.000	0.000	0.001	-0.000	-0.000	-0.000	0.000	-0.000	-0.000	0.000
819.00	0.000	0.000	0.001	0.000	0.001	0.001	-0.000	0.000	0.001	0.000	0.000	-0.000	0.000	-0.000	-0.000	0.000
820.00	0.000	0.000	0.001	0.000	0.001	0.001	-0.000	0.000	0.001	0.000	0.000	-0.000	0.000	-0.000	-0.000	0.000
821.00	0.000	0.000	0.001	0.000	0.001	0.001	-0.000	0.000	0.001	0.000	0.000	-0.000	0.000	-0.000	-0.000	0.000
822.00	0.000	0.000	0.001	0.000	0.001	0.001	-0.000	0.000	0.001	-0.000	0.000	-0.000	0.000	-0.000	-0.000	0.000
823.00	0.000	0.000	0.001	0.000	0.001	0.001	-0.000	0.000	0.001	-0.000	-0.000	-0.000	0.000	-0.000	-0.000	0.000
824.00	0.000	0.000	0.001	0.000	0.001	0.001	-0.000	0.000	0.001	-0.000	-0.000	-0.000	0.000	-0.000	-0.000	0.000
825.00	0.000	0.000	0.001	0.000	0.001	0.001	-0.000	0.000	0.001	-0.000	0.000	-0.000	0.000	-0.000	-0.000	0.000
826.00	0.000	0.000	0.001	0.000	0.001	0.001	-0.000	0.000	0.001	-0.000	0.000	-0.000	0.000	-0.000	-0.000	0.000
827.00	0.000	0.000	0.001	0.000	0.001	0.001	-0.000	0.000	0.001	-0.000	-0.000	-0.000	0.000	-0.000	-0.000	0.000
828.00	0.000	0.000	0.001	0.000	0.001	0.001	-0.000	0.000	0.001	-0.000	-0.000	-0.000	0.000	-0.000	-0.000	0.000
829.00	-0.000	0.000	0.001	0.000	0.001	0.001	-0.000	-0.000	0.001	-0.000	-0.000	-0.000	0.000	-0.001	-0.000	0.000
830.00	0.000	0.000	0.001	0.000	0.001	0.001	-0.000	-0.000	0.000	-0.000	-0.000	-0.000	0.000	-0.001	-0.000	-0.000
831.00	0.000	0.000	0.001	0.000	0.001	0.001	-0.000	-0.000	0.000	-0.000	-0.000	-0.000	0.000	-0.000	-0.000	0.000
832.00	0.000	0.000	0.001	0.000	0.001	0.001	-0.000	-0.000	0.000	-0.000	-0.000	-0.000	0.000	-0.000	-0.000	-0.000
833.00	0.000	0.000	0.001	0.000	0.001	0.001	-0.000	-0.000	0.001	-0.000	-0.000	-0.000	0.000	-0.000	-0.000	0.000
834.00	0.000	0.000	0.001	0.000	0.001	0.001	-0.000	-0.000	0.001	-0.000	-0.000	-0.000	0.000	-0.000	-0.000	0.000
835.00	0.000	0.000	0.001	0.000	0.001	0.001	-0.000	-0.000	0.000	-0.000	-0.000	-0.000	0.000	-0.000	-0.000	0.000
836.00	-0.000	0.000	0.001	0.000	0.001	0.001	-0.000	-0.000	0.000	-0.000	-0.000	-0.000	0.000	-0.001	-0.000	-0.000
837.00	-0.000	0.000	0.001	0.000	0.001	0.001	-0.000	-0.000	0.000	-0.000	-0.000	-0.000	0.000	-0.000	-0.000	0.000
838.00	0.000	0.000	0.001	0.000	0.001	0.001	-0.000	-0.000	0.000	-0.000	-0.000	-0.000	0.000	-0.001	-0.000	0.000
839.00	0.000	0.000	0.001	0.000	0.001	0.001	-0.000	-0.000	0.000	-0.000	-0.000	-0.000	0.000	-0.001	-0.000	0.000
840.00	0.000	0.000	0.001	0.000	0.001	0.001	-0.000	-0.000	0.000	-0.000	-0.000	-0.000	0.000	-0.001	-0.000	0.000
841.00	0.000	0.000	0.001	0.000	0.001	0.001	-0.000	0.000	0.000	-0.000	-0.000	-0.000	0.000	-0.001	-0.000	0.000
842.00	0.000	0.000	0.001	0.000	0.001	0.001	-0.000	-0.000	0.000	-0.000	-0.000	-0.000	0.000	-0.001	-0.000	-0.000
843.00	-0.000	0.000	0.001	0.000	0.000	0.001	-0.000	-0.000	0.000	-0.000	-0.000	-0.000	0.000	-0.001	-0.001	-0.000
844.00	0.000	0.000	0.001	0.000	0.001	0.001	-0.000	-0.000	0.000	-0.000	-0.000	-0.000	0.000	-0.001	-0.000	-0.000
845.00	0.000	0.000	0.001	0.000	0.001	0.001	-0.000	-0.000	0.000	-0.000	-0.000	-0.000	0.000	-0.001	-0.000	-0.000
846.00	0.000	0.000	0.001	0.000	0.000	0.001	-0.000	-0.000	0.000	-0.000	-0.000	-0.000	0.000	-0.001	-0.000	-0.000
847.00	0.000	0.000	0.001	0.000	0.001	0.001	-0.000	-0.000	0.000	-0.000	-0.000	-0.000	0.000	-0.001	-0.000	-0.000
848.00	0.000	0.000	0.001	0.000	0.001	0.001	-0.000	-0.000	0.000	-0.000	-0.000	-0.000	0.000	-0.001	-0.000	-0.000
849.00	0.000	0.000	0.001	0.000	0.001	0.001	-0.000	-0.000	0.000	-0.000	-0.000	-0.000	0.000	-0.001	-0.000	-0.000
850.00	0.000	0.000	0.001	0.000	0.001	0.001	-0.000	-0.000	0.000	-0.000	-0.000	-0.000	0.000	-0.001	-0.000	-0.000
