Wavelength nm.,MilliQ,CC4_17feb25_9R1,CC4_17feb25_01R1,CC2_17feb25_01R2,CS1_17feb25_01R2,CC4_17feb25_BOTR1,C50_17feb25_20R1,CP1_17feb25_01R2,CC4_17feb25_15R1,CC3_17feb25_01R1,C50_17feb25_6R1,CC4_17feb25_6R1,CC3_17feb25_15R1,CC2_17feb25_01R1,CC3_17feb25_BOTR1,C50_17feb25_9R1
190,0.003,0.52,0.496,0.489,0.152,0.503,0.496,0.147,0.527,0.452,0.484,0.517,0.46,0.454,0.477,0.477
191,0.006,0.482,0.458,0.455,0.146,0.46,0.453,0.141,0.484,0.418,0.448,0.472,0.428,0.422,0.439,0.44
192,0.006,0.446,0.422,0.42,0.139,0.424,0.416,0.135,0.45,0.386,0.417,0.431,0.396,0.388,0.405,0.404
193,0.006,0.405,0.385,0.385,0.131,0.385,0.377,0.128,0.413,0.353,0.382,0.39,0.362,0.354,0.369,0.369
194,0.005,0.373,0.356,0.357,0.126,0.356,0.347,0.123,0.382,0.326,0.353,0.358,0.336,0.328,0.34,0.341
195,0.006,0.345,0.329,0.331,0.121,0.329,0.32,0.118,0.354,0.302,0.328,0.33,0.312,0.304,0.315,0.316
196,0.006,0.321,0.307,0.309,0.117,0.308,0.298,0.115,0.332,0.281,0.307,0.307,0.293,0.284,0.294,0.295
197,0.005,0.301,0.29,0.29,0.113,0.289,0.278,0.111,0.312,0.262,0.289,0.287,0.276,0.267,0.275,0.276
198,0.005,0.283,0.274,0.273,0.11,0.273,0.262,0.108,0.294,0.247,0.274,0.271,0.262,0.252,0.26,0.26
199,0.005,0.269,0.261,0.259,0.108,0.259,0.249,0.106,0.279,0.235,0.26,0.257,0.25,0.24,0.247,0.247
200,0.004,0.257,0.249,0.248,0.107,0.248,0.239,0.104,0.266,0.225,0.249,0.245,0.24,0.23,0.236,0.236
201,0.004,0.245,0.239,0.237,0.104,0.237,0.229,0.102,0.254,0.214,0.237,0.235,0.229,0.221,0.225,0.226
202,0.003,0.236,0.229,0.227,0.102,0.227,0.22,0.099,0.244,0.206,0.227,0.226,0.221,0.212,0.216,0.217
203,0.003,0.228,0.222,0.22,0.1,0.22,0.213,0.098,0.236,0.2,0.22,0.219,0.214,0.205,0.209,0.21
204,0.003,0.22,0.214,0.212,0.099,0.213,0.206,0.096,0.227,0.192,0.212,0.212,0.207,0.199,0.202,0.203
205,0.002,0.213,0.207,0.205,0.096,0.206,0.199,0.094,0.219,0.186,0.205,0.205,0.2,0.192,0.195,0.197
206,0.002,0.206,0.201,0.198,0.094,0.2,0.193,0.092,0.213,0.18,0.198,0.199,0.194,0.186,0.189,0.191
207,0.002,0.2,0.196,0.192,0.093,0.194,0.188,0.09,0.207,0.175,0.192,0.193,0.189,0.181,0.184,0.185
208,0.002,0.195,0.19,0.186,0.091,0.189,0.183,0.088,0.201,0.171,0.187,0.188,0.184,0.176,0.179,0.18
209,0.002,0.189,0.184,0.18,0.089,0.183,0.177,0.087,0.194,0.166,0.18,0.182,0.178,0.171,0.173,0.175
210,0.002,0.183,0.179,0.175,0.087,0.178,0.172,0.085,0.188,0.161,0.175,0.177,0.172,0.166,0.167,0.169
211,0.002,0.177,0.173,0.169,0.085,0.172,0.167,0.083,0.182,0.155,0.169,0.171,0.167,0.161,0.162,0.164
212,0.002,0.172,0.167,0.163,0.084,0.167,0.161,0.081,0.176,0.151,0.163,0.166,0.161,0.156,0.157,0.159
213,0.002,0.165,0.161,0.158,0.081,0.161,0.155,0.079,0.17,0.145,0.157,0.16,0.155,0.15,0.151,0.153
214,0.002,0.159,0.155,0.152,0.079,0.155,0.15,0.078,0.164,0.14,0.152,0.154,0.149,0.144,0.146,0.147
215,0.002,0.153,0.15,0.146,0.078,0.15,0.144,0.076,0.158,0.135,0.146,0.149,0.144,0.139,0.14,0.142
216,0.002,0.148,0.144,0.14,0.076,0.144,0.138,0.074,0.152,0.13,0.14,0.143,0.138,0.134,0.135,0.136
217,0.002,0.142,0.139,0.135,0.074,0.139,0.133,0.072,0.146,0.125,0.135,0.137,0.132,0.128,0.13,0.131
218,0.002,0.137,0.134,0.13,0.072,0.133,0.128,0.07,0.141,0.121,0.13,0.132,0.127,0.124,0.125,0.126
219,0.002,0.132,0.128,0.125,0.07,0.128,0.123,0.069,0.135,0.117,0.125,0.127,0.122,0.119,0.12,0.121
220,0.002,0.127,0.124,0.12,0.069,0.124,0.118,0.067,0.131,0.113,0.121,0.123,0.117,0.115,0.116,0.116
221,0.002,0.122,0.119,0.116,0.067,0.119,0.113,0.066,0.126,0.108,0.116,0.118,0.112,0.111,0.111,0.112
222,0.002,0.118,0.115,0.111,0.066,0.115,0.109,0.064,0.121,0.105,0.112,0.114,0.108,0.106,0.107,0.108
223,0.002,0.113,0.111,0.107,0.065,0.111,0.105,0.063,0.117,0.101,0.108,0.11,0.104,0.103,0.103,0.104
224,0.002,0.109,0.107,0.104,0.063,0.107,0.101,0.061,0.113,0.097,0.104,0.106,0.1,0.099,0.099,0.1
225,0.002,0.105,0.103,0.1,0.062,0.104,0.098,0.06,0.109,0.094,0.1,0.102,0.096,0.095,0.096,0.096
226,0.002,0.102,0.1,0.097,0.061,0.1,0.095,0.059,0.106,0.091,0.097,0.099,0.093,0.092,0.093,0.093
227,0.002,0.099,0.097,0.094,0.06,0.097,0.091,0.058,0.102,0.089,0.094,0.096,0.09,0.089,0.09,0.09
228,0.002,0.096,0.094,0.091,0.058,0.094,0.089,0.057,0.099,0.086,0.091,0.093,0.087,0.087,0.087,0.087
229,0.002,0.093,0.091,0.088,0.057,0.091,0.086,0.056,0.096,0.084,0.088,0.09,0.084,0.084,0.084,0.084
230,0.002,0.09,0.088,0.085,0.056,0.089,0.083,0.055,0.093,0.081,0.086,0.087,0.081,0.081,0.082,0.082
231,0.001,0.088,0.086,0.083,0.055,0.087,0.081,0.054,0.091,0.079,0.083,0.085,0.079,0.079,0.08,0.08
232,0.001,0.086,0.084,0.081,0.054,0.084,0.079,0.053,0.088,0.077,0.081,0.083,0.077,0.077,0.078,0.078
233,0.001,0.084,0.082,0.079,0.053,0.082,0.077,0.052,0.086,0.075,0.079,0.081,0.074,0.076,0.076,0.076
234,0.001,0.082,0.08,0.077,0.053,0.08,0.075,0.051,0.084,0.074,0.077,0.079,0.073,0.074,0.074,0.074
235,0.001,0.08,0.078,0.075,0.052,0.079,0.073,0.05,0.082,0.072,0.075,0.078,0.071,0.072,0.072,0.073
236,0.001,0.079,0.077,0.074,0.051,0.077,0.072,0.049,0.081,0.071,0.074,0.076,0.07,0.071,0.071,0.071
237,0.001,0.077,0.075,0.072,0.05,0.076,0.071,0.049,0.079,0.069,0.072,0.074,0.068,0.069,0.069,0.07
238,0.001,0.075,0.074,0.071,0.049,0.074,0.069,0.048,0.078,0.068,0.071,0.073,0.067,0.068,0.068,0.068
239,0.001,0.074,0.072,0.069,0.049,0.073,0.068,0.047,0.076,0.067,0.07,0.072,0.065,0.067,0.067,0.067
240,0.001,0.073,0.071,0.068,0.048,0.072,0.067,0.046,0.075,0.066,0.068,0.071,0.064,0.066,0.066,0.066
241,0.001,0.072,0.07,0.067,0.048,0.071,0.066,0.046,0.074,0.065,0.067,0.07,0.063,0.065,0.065,0.065
242,0.001,0.071,0.07,0.066,0.047,0.07,0.065,0.045,0.073,0.064,0.066,0.069,0.063,0.064,0.064,0.064
243,0.001,0.07,0.068,0.065,0.046,0.069,0.064,0.045,0.072,0.063,0.065,0.068,0.062,0.063,0.063,0.063
244,0.001,0.069,0.068,0.065,0.046,0.068,0.063,0.044,0.071,0.062,0.064,0.067,0.061,0.062,0.062,0.062
245,0.001,0.068,0.067,0.064,0.045,0.067,0.063,0.044,0.07,0.062,0.064,0.066,0.06,0.062,0.061,0.062
246,0.001,0.067,0.066,0.063,0.045,0.066,0.062,0.043,0.069,0.061,0.063,0.065,0.059,0.061,0.061,0.061
247,0.001,0.067,0.065,0.062,0.044,0.066,0.061,0.043,0.068,0.06,0.062,0.065,0.059,0.06,0.06,0.06
248,0.001,0.066,0.064,0.062,0.044,0.065,0.06,0.042,0.068,0.06,0.061,0.064,0.058,0.059,0.059,0.059
249,0.001,0.065,0.064,0.061,0.043,0.064,0.06,0.042,0.067,0.059,0.06,0.063,0.057,0.059,0.059,0.059
250,0.001,0.065,0.063,0.06,0.043,0.064,0.059,0.041,0.066,0.059,0.06,0.063,0.057,0.058,0.058,0.058
251,0.001,0.064,0.063,0.06,0.042,0.063,0.059,0.041,0.066,0.058,0.059,0.062,0.056,0.058,0.058,0.058
252,0.001,0.064,0.062,0.059,0.042,0.063,0.058,0.04,0.065,0.058,0.059,0.062,0.056,0.057,0.057,0.057
253,0.001,0.063,0.062,0.059,0.042,0.062,0.057,0.04,0.065,0.057,0.058,0.061,0.055,0.057,0.057,0.057
254,0.001,0.062,0.061,0.058,0.041,0.061,0.057,0.04,0.064,0.056,0.057,0.06,0.055,0.056,0.056,0.056
255,0.001,0.062,0.061,0.058,0.041,0.061,0.056,0.039,0.063,0.056,0.057,0.06,0.054,0.055,0.056,0.056
256,0.001,0.061,0.06,0.057,0.04,0.06,0.056,0.039,0.063,0.055,0.056,0.059,0.054,0.055,0.055,0.055
257,0.001,0.061,0.06,0.057,0.04,0.06,0.055,0.038,0.062,0.055,0.056,0.059,0.053,0.055,0.054,0.055
258,0.001,0.06,0.059,0.056,0.04,0.059,0.055,0.038,0.062,0.055,0.056,0.058,0.053,0.054,0.054,0.054
259,0.001,0.06,0.059,0.056,0.039,0.059,0.054,0.038,0.061,0.054,0.055,0.058,0.052,0.054,0.053,0.053
260,0.001,0.059,0.058,0.055,0.039,0.058,0.054,0.037,0.061,0.054,0.054,0.057,0.052,0.053,0.053,0.053
261,0.001,0.059,0.057,0.055,0.039,0.057,0.053,0.037,0.06,0.053,0.054,0.056,0.051,0.053,0.052,0.053
262,0.001,0.058,0.057,0.054,0.038,0.057,0.053,0.036,0.06,0.053,0.053,0.056,0.051,0.052,0.052,0.052
263,0.001,0.057,0.056,0.054,0.038,0.057,0.052,0.036,0.059,0.052,0.053,0.055,0.05,0.051,0.051,0.051
264,0.001,0.057,0.056,0.053,0.037,0.056,0.052,0.036,0.059,0.052,0.052,0.055,0.05,0.051,0.051,0.051
265,0.001,0.056,0.055,0.053,0.037,0.055,0.051,0.035,0.058,0.051,0.052,0.054,0.049,0.05,0.05,0.05
266,0.001,0.055,0.055,0.052,0.037,0.055,0.05,0.035,0.057,0.05,0.051,0.053,0.048,0.049,0.049,0.049
267,0.001,0.055,0.054,0.052,0.036,0.054,0.049,0.034,0.057,0.05,0.05,0.053,0.048,0.049,0.049,0.049
268,0.001,0.054,0.053,0.051,0.036,0.053,0.049,0.034,0.056,0.049,0.05,0.052,0.047,0.048,0.048,0.048
269,0.001,0.053,0.053,0.05,0.035,0.053,0.048,0.034,0.055,0.048,0.049,0.051,0.047,0.048,0.048,0.048
270,0.001,0.053,0.052,0.05,0.035,0.052,0.048,0.033,0.055,0.048,0.049,0.051,0.046,0.047,0.047,0.047
271,0.001,0.052,0.051,0.049,0.035,0.051,0.047,0.033,0.054,0.047,0.048,0.05,0.046,0.046,0.046,0.047
272,0.001,0.052,0.051,0.049,0.035,0.051,0.046,0.033,0.053,0.047,0.047,0.049,0.045,0.046,0.046,0.046
273,0.001,0.051,0.05,0.048,0.034,0.05,0.046,0.032,0.053,0.046,0.047,0.049,0.044,0.045,0.045,0.045
274,0.001,0.05,0.049,0.047,0.034,0.049,0.045,0.032,0.052,0.045,0.046,0.048,0.044,0.045,0.045,0.044
275,0.001,0.049,0.049,0.046,0.033,0.049,0.045,0.032,0.051,0.045,0.046,0.047,0.043,0.044,0.044,0.044
276,0.001,0.049,0.048,0.046,0.033,0.048,0.044,0.031,0.051,0.044,0.045,0.046,0.042,0.043,0.043,0.043
277,0.001,0.048,0.047,0.045,0.033,0.047,0.043,0.031,0.05,0.043,0.044,0.046,0.041,0.042,0.042,0.042
278,0.001,0.047,0.046,0.044,0.032,0.046,0.042,0.03,0.049,0.042,0.043,0.045,0.041,0.042,0.042,0.042
279,0.001,0.046,0.046,0.044,0.032,0.046,0.042,0.03,0.048,0.042,0.043,0.044,0.04,0.041,0.041,0.041
280,0.001,0.046,0.045,0.043,0.031,0.045,0.041,0.029,0.048,0.041,0.042,0.044,0.039,0.04,0.04,0.04
281,0.001,0.045,0.044,0.042,0.031,0.044,0.04,0.029,0.047,0.04,0.041,0.043,0.039,0.039,0.04,0.039
282,0.001,0.044,0.044,0.042,0.03,0.043,0.039,0.028,0.046,0.04,0.041,0.042,0.038,0.039,0.039,0.039
283,0.001,0.043,0.043,0.041,0.03,0.043,0.039,0.028,0.045,0.039,0.04,0.041,0.037,0.038,0.038,0.038
284,0.001,0.042,0.042,0.04,0.029,0.042,0.038,0.027,0.044,0.038,0.039,0.04,0.037,0.037,0.037,0.037
285,0.001,0.042,0.041,0.039,0.029,0.041,0.037,0.027,0.043,0.037,0.038,0.04,0.036,0.037,0.037,0.037
286,0.001,0.041,0.041,0.039,0.029,0.04,0.037,0.027,0.043,0.037,0.038,0.039,0.035,0.036,0.036,0.036
287,0.001,0.04,0.04,0.038,0.028,0.04,0.036,0.027,0.042,0.036,0.037,0.038,0.035,0.035,0.035,0.035
288,0.001,0.04,0.039,0.037,0.028,0.039,0.035,0.026,0.041,0.036,0.036,0.037,0.034,0.035,0.035,0.035
289,0.001,0.039,0.038,0.036,0.027,0.038,0.034,0.025,0.04,0.035,0.035,0.036,0.033,0.034,0.034,0.034
290,0.001,0.038,0.038,0.036,0.027,0.038,0.034,0.025,0.039,0.034,0.035,0.036,0.033,0.033,0.033,0.033
291,0.001,0.037,0.037,0.035,0.027,0.037,0.033,0.025,0.039,0.034,0.034,0.035,0.032,0.033,0.032,0.033
292,0.001,0.037,0.036,0.034,0.026,0.036,0.033,0.024,0.038,0.033,0.033,0.035,0.032,0.032,0.032,0.032
293,0.001,0.036,0.036,0.033,0.026,0.036,0.032,0.024,0.037,0.032,0.032,0.034,0.031,0.031,0.031,0.032
294,0.001,0.035,0.035,0.033,0.026,0.035,0.031,0.024,0.037,0.031,0.032,0.033,0.03,0.031,0.031,0.031
295,0.001,0.035,0.034,0.032,0.025,0.034,0.031,0.023,0.036,0.031,0.031,0.033,0.029,0.03,0.03,0.03
296,0.001,0.034,0.034,0.032,0.025,0.034,0.03,0.023,0.035,0.03,0.031,0.032,0.029,0.029,0.03,0.029
297,0.001,0.033,0.033,0.031,0.025,0.033,0.03,0.022,0.034,0.03,0.03,0.031,0.028,0.029,0.029,0.029
298,0.001,0.033,0.032,0.03,0.024,0.033,0.029,0.022,0.034,0.029,0.029,0.031,0.028,0.028,0.028,0.028
299,0.001,0.032,0.032,0.03,0.024,0.032,0.028,0.022,0.033,0.029,0.029,0.03,0.027,0.028,0.028,0.028
300,0.001,0.032,0.031,0.029,0.024,0.031,0.028,0.021,0.033,0.028,0.028,0.03,0.027,0.027,0.027,0.027
301,0.001,0.031,0.031,0.029,0.023,0.031,0.027,0.021,0.032,0.027,0.028,0.029,0.027,0.027,0.027,0.027
302,0.001,0.031,0.03,0.028,0.023,0.031,0.027,0.021,0.032,0.027,0.027,0.029,0.026,0.026,0.026,0.026
303,0.001,0.03,0.03,0.027,0.023,0.03,0.026,0.021,0.031,0.027,0.027,0.028,0.026,0.026,0.026,0.026
304,0.001,0.029,0.029,0.027,0.022,0.029,0.026,0.021,0.03,0.026,0.026,0.028,0.025,0.025,0.025,0.025
305,0.001,0.029,0.029,0.026,0.022,0.029,0.025,0.02,0.03,0.026,0.026,0.027,0.025,0.025,0.025,0.025
306,0.001,0.029,0.028,0.026,0.022,0.028,0.025,0.02,0.03,0.025,0.025,0.027,0.024,0.024,0.025,0.025
307,0.001,0.028,0.028,0.026,0.022,0.028,0.025,0.02,0.029,0.025,0.025,0.026,0.024,0.024,0.024,0.024
308,0.001,0.027,0.027,0.025,0.022,0.027,0.024,0.019,0.029,0.024,0.024,0.026,0.024,0.023,0.024,0.023
309,0.001,0.027,0.027,0.025,0.021,0.027,0.024,0.019,0.028,0.024,0.024,0.025,0.023,0.023,0.023,0.023
310,0.001,0.026,0.026,0.024,0.021,0.026,0.023,0.019,0.028,0.023,0.024,0.025,0.023,0.023,0.023,0.023
311,0.001,0.026,0.026,0.024,0.021,0.026,0.023,0.019,0.027,0.023,0.023,0.025,0.022,0.022,0.022,0.022
312,0.001,0.026,0.025,0.023,0.02,0.025,0.022,0.018,0.027,0.023,0.023,0.024,0.022,0.022,0.022,0.022
313,0.001,0.025,0.025,0.023,0.02,0.025,0.022,0.018,0.027,0.022,0.022,0.024,0.021,0.022,0.022,0.022
314,0.001,0.025,0.025,0.023,0.02,0.025,0.022,0.018,0.026,0.022,0.022,0.023,0.021,0.021,0.021,0.021
315,0,0.024,0.024,0.022,0.019,0.024,0.021,0.017,0.025,0.022,0.021,0.023,0.02,0.021,0.021,0.021
316,0.001,0.024,0.023,0.022,0.019,0.024,0.021,0.017,0.025,0.021,0.021,0.022,0.02,0.02,0.02,0.02
317,0.001,0.024,0.023,0.021,0.019,0.024,0.021,0.017,0.025,0.021,0.021,0.022,0.02,0.02,0.02,0.02
318,0.001,0.023,0.023,0.021,0.019,0.023,0.02,0.017,0.024,0.021,0.02,0.022,0.019,0.02,0.02,0.02
319,0.001,0.023,0.023,0.021,0.019,0.023,0.02,0.017,0.024,0.02,0.02,0.021,0.019,0.02,0.019,0.019
320,0.001,0.023,0.023,0.02,0.018,0.023,0.02,0.016,0.024,0.02,0.02,0.021,0.019,0.019,0.019,0.019
321,0.001,0.022,0.022,0.02,0.018,0.022,0.019,0.016,0.024,0.02,0.02,0.021,0.019,0.019,0.019,0.019
322,0.001,0.022,0.022,0.02,0.018,0.022,0.019,0.016,0.023,0.019,0.019,0.02,0.018,0.018,0.018,0.018
323,0.001,0.021,0.021,0.019,0.018,0.022,0.018,0.016,0.023,0.019,0.019,0.02,0.018,0.018,0.018,0.018
324,0.001,0.021,0.021,0.019,0.018,0.021,0.018,0.015,0.022,0.019,0.019,0.02,0.018,0.018,0.018,0.018
325,0.001,0.021,0.021,0.019,0.017,0.021,0.018,0.015,0.022,0.019,0.018,0.019,0.018,0.018,0.018,0.018
326,0,0.02,0.02,0.018,0.017,0.021,0.018,0.015,0.022,0.018,0.018,0.019,0.017,0.017,0.017,0.017
327,0,0.02,0.02,0.018,0.017,0.02,0.017,0.015,0.021,0.018,0.017,0.019,0.017,0.017,0.017,0.017
328,0.001,0.02,0.019,0.018,0.016,0.02,0.017,0.014,0.021,0.017,0.017,0.018,0.017,0.016,0.017,0.016
329,0.001,0.02,0.02,0.018,0.017,0.02,0.017,0.015,0.021,0.017,0.017,0.018,0.016,0.016,0.016,0.016
330,0.001,0.019,0.019,0.017,0.016,0.02,0.016,0.014,0.02,0.017,0.017,0.018,0.016,0.016,0.016,0.016
331,0.001,0.019,0.019,0.017,0.016,0.019,0.016,0.014,0.02,0.017,0.016,0.018,0.016,0.016,0.016,0.016
332,0,0.018,0.018,0.017,0.016,0.019,0.016,0.013,0.02,0.016,0.016,0.017,0.015,0.015,0.015,0.015
333,0,0.018,0.018,0.016,0.016,0.018,0.016,0.013,0.019,0.016,0.016,0.017,0.015,0.015,0.015,0.015
334,0,0.018,0.018,0.016,0.015,0.018,0.015,0.013,0.019,0.016,0.016,0.016,0.015,0.015,0.015,0.015
335,0,0.018,0.018,0.016,0.015,0.018,0.015,0.013,0.019,0.015,0.015,0.016,0.015,0.014,0.015,0.015
336,0,0.017,0.018,0.016,0.015,0.017,0.015,0.013,0.019,0.015,0.015,0.016,0.015,0.014,0.014,0.015
337,0.001,0.017,0.017,0.015,0.015,0.017,0.015,0.013,0.018,0.015,0.014,0.015,0.014,0.014,0.014,0.014
338,0.001,0.017,0.017,0.015,0.014,0.017,0.014,0.013,0.018,0.015,0.014,0.015,0.014,0.014,0.014,0.014
339,0.001,0.017,0.017,0.015,0.015,0.017,0.014,0.013,0.018,0.015,0.014,0.015,0.014,0.014,0.014,0.014
340,0.002,0.018,0.018,0.016,0.016,0.018,0.016,0.014,0.019,0.016,0.015,0.017,0.015,0.015,0.015,0.015
341,0.001,0.016,0.016,0.015,0.014,0.016,0.014,0.012,0.017,0.014,0.014,0.015,0.013,0.013,0.014,0.014
342,0.001,0.016,0.016,0.014,0.014,0.016,0.014,0.012,0.017,0.014,0.013,0.015,0.013,0.013,0.013,0.013
343,0.001,0.015,0.016,0.014,0.013,0.016,0.013,0.012,0.016,0.014,0.013,0.014,0.013,0.012,0.013,0.013
344,0.001,0.015,0.015,0.014,0.013,0.015,0.013,0.011,0.016,0.013,0.013,0.014,0.012,0.012,0.013,0.012
345,0.001,0.015,0.015,0.013,0.013,0.015,0.013,0.011,0.016,0.013,0.013,0.014,0.012,0.012,0.013,0.012
346,0.001,0.015,0.015,0.013,0.013,0.015,0.013,0.011,0.016,0.013,0.012,0.014,0.012,0.012,0.012,0.012
347,0.001,0.014,0.015,0.013,0.013,0.015,0.012,0.011,0.016,0.013,0.012,0.014,0.012,0.012,0.012,0.012
348,0.001,0.014,0.015,0.013,0.013,0.015,0.012,0.011,0.016,0.013,0.012,0.013,0.012,0.011,0.012,0.012
349,0.001,0.014,0.014,0.013,0.013,0.015,0.012,0.011,0.015,0.012,0.012,0.013,0.012,0.012,0.012,0.012
350,0.001,0.014,0.014,0.013,0.013,0.015,0.012,0.011,0.015,0.012,0.012,0.013,0.012,0.012,0.012,0.012
351,0.001,0.014,0.014,0.012,0.012,0.015,0.012,0.011,0.015,0.012,0.012,0.013,0.012,0.011,0.011,0.011
352,0.001,0.013,0.014,0.012,0.012,0.014,0.012,0.01,0.015,0.012,0.012,0.012,0.012,0.011,0.011,0.011
353,0.001,0.013,0.014,0.012,0.012,0.014,0.011,0.01,0.014,0.012,0.012,0.012,0.011,0.011,0.011,0.011
354,0.001,0.013,0.014,0.012,0.012,0.013,0.011,0.01,0.014,0.011,0.011,0.012,0.011,0.01,0.011,0.011
355,0,0.013,0.013,0.012,0.012,0.013,0.011,0.01,0.014,0.011,0.011,0.012,0.011,0.01,0.01,0.01
356,0,0.012,0.013,0.011,0.012,0.013,0.011,0.01,0.014,0.011,0.01,0.012,0.011,0.01,0.01,0.01
357,0.001,0.012,0.013,0.011,0.011,0.013,0.011,0.009,0.013,0.011,0.01,0.011,0.01,0.01,0.01,0.01
358,0,0.012,0.013,0.011,0.011,0.013,0.011,0.009,0.013,0.01,0.01,0.011,0.01,0.01,0.01,0.009
359,0,0.012,0.013,0.011,0.011,0.013,0.01,0.009,0.013,0.011,0.01,0.011,0.01,0.01,0.01,0.01
360,0.001,0.012,0.012,0.011,0.011,0.012,0.01,0.009,0.013,0.01,0.01,0.011,0.01,0.009,0.01,0.01
361,0.001,0.012,0.012,0.011,0.011,0.012,0.01,0.008,0.013,0.01,0.01,0.01,0.01,0.009,0.009,0.009
362,0.001,0.011,0.012,0.01,0.011,0.012,0.01,0.009,0.012,0.01,0.01,0.01,0.009,0.009,0.009,0.009
363,0.001,0.011,0.012,0.01,0.01,0.012,0.01,0.009,0.012,0.01,0.01,0.01,0.009,0.009,0.009,0.009
364,0.001,0.011,0.012,0.01,0.01,0.012,0.009,0.008,0.012,0.01,0.009,0.01,0.009,0.009,0.009,0.009
365,0.001,0.011,0.012,0.01,0.01,0.012,0.009,0.008,0.012,0.01,0.009,0.01,0.009,0.009,0.009,0.009
366,0.001,0.011,0.011,0.01,0.01,0.012,0.009,0.008,0.012,0.009,0.009,0.01,0.009,0.008,0.009,0.009
367,0.001,0.011,0.011,0.01,0.01,0.011,0.009,0.008,0.012,0.009,0.009,0.01,0.009,0.008,0.009,0.008
368,0,0.01,0.011,0.009,0.01,0.011,0.009,0.008,0.011,0.009,0.009,0.009,0.008,0.008,0.008,0.008
369,0.001,0.01,0.011,0.009,0.01,0.011,0.009,0.008,0.011,0.009,0.009,0.009,0.008,0.008,0.008,0.008
370,0,0.01,0.011,0.009,0.01,0.011,0.009,0.008,0.011,0.009,0.008,0.009,0.008,0.008,0.008,0.008
371,0.001,0.01,0.011,0.009,0.009,0.011,0.008,0.007,0.011,0.009,0.008,0.009,0.008,0.008,0.008,0.008
372,0.001,0.009,0.01,0.009,0.009,0.011,0.009,0.007,0.011,0.009,0.008,0.009,0.008,0.008,0.008,0.007
373,0.001,0.01,0.01,0.009,0.009,0.01,0.008,0.007,0.011,0.008,0.008,0.009,0.008,0.007,0.008,0.007
374,0.001,0.009,0.01,0.009,0.009,0.01,0.008,0.007,0.011,0.008,0.008,0.008,0.008,0.007,0.008,0.007
375,0.001,0.009,0.01,0.008,0.009,0.01,0.008,0.007,0.01,0.008,0.008,0.009,0.008,0.007,0.008,0.007
376,0.001,0.009,0.01,0.009,0.009,0.01,0.008,0.007,0.011,0.008,0.008,0.008,0.008,0.007,0.008,0.007
377,0,0.009,0.01,0.008,0.009,0.01,0.008,0.007,0.01,0.008,0.007,0.008,0.007,0.007,0.007,0.007
378,0,0.009,0.01,0.008,0.009,0.01,0.007,0.007,0.01,0.008,0.007,0.008,0.007,0.007,0.007,0.007
379,0,0.009,0.01,0.008,0.009,0.01,0.007,0.007,0.01,0.008,0.007,0.008,0.007,0.007,0.007,0.007
380,0,0.009,0.009,0.008,0.008,0.01,0.007,0.007,0.01,0.007,0.007,0.008,0.007,0.007,0.007,0.007
381,0,0.008,0.009,0.008,0.008,0.009,0.007,0.006,0.01,0.007,0.007,0.008,0.007,0.006,0.007,0.007
382,0,0.008,0.009,0.008,0.008,0.009,0.007,0.006,0.01,0.007,0.007,0.007,0.007,0.006,0.007,0.006
383,0,0.008,0.009,0.007,0.008,0.009,0.007,0.006,0.009,0.007,0.007,0.007,0.007,0.006,0.006,0.006
384,0,0.008,0.009,0.007,0.008,0.009,0.007,0.006,0.009,0.007,0.006,0.007,0.006,0.006,0.006,0.006
385,0,0.008,0.009,0.007,0.008,0.009,0.007,0.006,0.009,0.007,0.007,0.007,0.006,0.006,0.006,0.006
386,0,0.008,0.009,0.007,0.008,0.009,0.007,0.006,0.009,0.007,0.006,0.007,0.006,0.006,0.006,0.006
387,0.001,0.008,0.009,0.007,0.008,0.009,0.006,0.006,0.009,0.007,0.006,0.007,0.006,0.006,0.006,0.006
388,0,0.008,0.008,0.007,0.008,0.009,0.006,0.006,0.009,0.007,0.006,0.007,0.006,0.006,0.006,0.006
389,0,0.007,0.008,0.007,0.007,0.008,0.006,0.006,0.009,0.007,0.006,0.007,0.006,0.006,0.006,0.006
390,0,0.007,0.008,0.006,0.007,0.008,0.006,0.005,0.008,0.006,0.006,0.006,0.006,0.005,0.006,0.005
391,0,0.007,0.008,0.006,0.007,0.008,0.006,0.005,0.008,0.006,0.006,0.006,0.006,0.005,0.005,0.005
392,0,0.007,0.008,0.006,0.007,0.008,0.006,0.005,0.008,0.006,0.006,0.006,0.006,0.005,0.005,0.005
393,0,0.007,0.008,0.006,0.007,0.008,0.006,0.005,0.008,0.006,0.006,0.006,0.006,0.005,0.005,0.005
394,0,0.007,0.008,0.006,0.007,0.008,0.006,0.005,0.008,0.006,0.006,0.006,0.005,0.005,0.005,0.005
395,0,0.007,0.008,0.006,0.007,0.008,0.006,0.005,0.008,0.006,0.005,0.006,0.005,0.005,0.005,0.005
396,0,0.007,0.008,0.006,0.007,0.008,0.006,0.005,0.008,0.006,0.005,0.006,0.005,0.005,0.005,0.005
397,0,0.006,0.007,0.006,0.006,0.008,0.006,0.005,0.007,0.006,0.005,0.006,0.005,0.005,0.005,0.005
398,0,0.006,0.007,0.006,0.006,0.007,0.005,0.005,0.007,0.005,0.005,0.006,0.005,0.005,0.005,0.005
399,0,0.006,0.007,0.006,0.006,0.007,0.005,0.005,0.007,0.005,0.005,0.005,0.005,0.005,0.005,0.005
400,0.001,0.006,0.007,0.006,0.006,0.007,0.005,0.005,0.007,0.005,0.005,0.005,0.005,0.004,0.005,0.005
401,0,0.006,0.007,0.006,0.006,0.007,0.005,0.005,0.007,0.005,0.005,0.005,0.005,0.004,0.005,0.004
402,0,0.006,0.007,0.006,0.006,0.007,0.005,0.004,0.007,0.005,0.005,0.005,0.005,0.004,0.005,0.004
403,0,0.006,0.007,0.005,0.006,0.007,0.005,0.004,0.007,0.005,0.005,0.005,0.004,0.004,0.004,0.004
404,0,0.006,0.007,0.005,0.006,0.007,0.005,0.004,0.007,0.005,0.005,0.005,0.005,0.004,0.004,0.004
405,0,0.006,0.007,0.005,0.006,0.007,0.005,0.004,0.007,0.005,0.005,0.005,0.004,0.004,0.004,0.004
406,0,0.006,0.007,0.005,0.006,0.007,0.005,0.004,0.007,0.005,0.005,0.005,0.004,0.004,0.004,0.004
407,0,0.006,0.007,0.005,0.006,0.006,0.004,0.004,0.007,0.005,0.004,0.005,0.004,0.004,0.004,0.004
408,0,0.006,0.006,0.005,0.006,0.007,0.004,0.004,0.007,0.005,0.004,0.005,0.004,0.004,0.004,0.004
409,0,0.006,0.006,0.005,0.006,0.006,0.004,0.004,0.007,0.005,0.004,0.005,0.004,0.004,0.004,0.004
410,0,0.005,0.007,0.005,0.006,0.006,0.004,0.004,0.007,0.005,0.004,0.005,0.004,0.004,0.004,0.004
411,0,0.005,0.006,0.005,0.006,0.006,0.004,0.004,0.006,0.005,0.004,0.005,0.004,0.004,0.004,0.004
412,0,0.005,0.006,0.005,0.006,0.006,0.004,0.004,0.006,0.004,0.004,0.004,0.004,0.004,0.004,0.004
413,0,0.005,0.006,0.005,0.006,0.006,0.004,0.004,0.006,0.005,0.004,0.004,0.004,0.004,0.004,0.004
414,0,0.005,0.006,0.005,0.006,0.006,0.004,0.004,0.006,0.005,0.004,0.004,0.004,0.004,0.004,0.004
415,0,0.005,0.006,0.005,0.006,0.006,0.004,0.004,0.006,0.004,0.004,0.004,0.004,0.003,0.004,0.004
416,0,0.005,0.006,0.005,0.006,0.006,0.004,0.004,0.006,0.004,0.004,0.004,0.004,0.003,0.004,0.004
417,0,0.005,0.006,0.004,0.005,0.006,0.004,0.004,0.006,0.004,0.004,0.004,0.004,0.003,0.003,0.003
418,0,0.005,0.006,0.004,0.005,0.006,0.004,0.004,0.006,0.004,0.004,0.004,0.004,0.003,0.003,0.003
419,0,0.005,0.006,0.004,0.005,0.006,0.004,0.004,0.006,0.004,0.004,0.004,0.004,0.003,0.003,0.003
420,0,0.005,0.006,0.004,0.005,0.006,0.004,0.004,0.006,0.004,0.004,0.004,0.004,0.003,0.003,0.003
421,0,0.005,0.006,0.004,0.005,0.006,0.004,0.003,0.006,0.004,0.004,0.004,0.004,0.003,0.003,0.003
422,0,0.004,0.005,0.004,0.005,0.006,0.004,0.003,0.006,0.004,0.004,0.004,0.003,0.003,0.003,0.003
423,0,0.004,0.006,0.004,0.005,0.006,0.004,0.003,0.006,0.004,0.004,0.004,0.003,0.003,0.003,0.003
424,0,0.004,0.005,0.004,0.005,0.005,0.004,0.003,0.006,0.004,0.004,0.004,0.003,0.003,0.003,0.003
425,0,0.004,0.006,0.004,0.005,0.005,0.004,0.003,0.006,0.004,0.003,0.004,0.003,0.003,0.003,0.003
426,0,0.004,0.005,0.004,0.005,0.005,0.004,0.003,0.005,0.004,0.003,0.004,0.003,0.003,0.003,0.003
427,0.001,0.004,0.005,0.004,0.005,0.005,0.003,0.003,0.005,0.004,0.003,0.003,0.003,0.003,0.003,0.003
428,0.001,0.004,0.005,0.004,0.005,0.005,0.003,0.003,0.005,0.004,0.003,0.003,0.003,0.003,0.003,0.003
429,0,0.004,0.005,0.004,0.005,0.005,0.003,0.003,0.005,0.004,0.003,0.003,0.003,0.003,0.003,0.003
430,0,0.004,0.005,0.004,0.005,0.005,0.003,0.003,0.005,0.004,0.003,0.003,0.003,0.003,0.003,0.003
431,0,0.004,0.005,0.004,0.004,0.005,0.003,0.003,0.005,0.004,0.003,0.003,0.003,0.003,0.003,0.003
432,0,0.004,0.005,0.004,0.004,0.005,0.003,0.003,0.005,0.003,0.003,0.003,0.003,0.002,0.003,0.003
433,0,0.004,0.005,0.004,0.004,0.005,0.003,0.003,0.005,0.003,0.003,0.003,0.003,0.002,0.003,0.002
434,0,0.004,0.005,0.004,0.004,0.005,0.003,0.003,0.005,0.003,0.003,0.003,0.003,0.002,0.003,0.002
435,0,0.004,0.005,0.003,0.004,0.005,0.003,0.003,0.005,0.003,0.003,0.003,0.003,0.002,0.003,0.002
436,0,0.004,0.005,0.003,0.004,0.005,0.003,0.003,0.005,0.003,0.003,0.003,0.003,0.002,0.002,0.002
437,0,0.004,0.005,0.003,0.004,0.005,0.003,0.003,0.005,0.003,0.003,0.003,0.003,0.002,0.003,0.002
438,0,0.003,0.005,0.003,0.004,0.005,0.003,0.003,0.004,0.003,0.003,0.003,0.002,0.002,0.002,0.002
439,0,0.003,0.005,0.003,0.004,0.004,0.003,0.002,0.004,0.003,0.003,0.003,0.002,0.002,0.002,0.002
440,0,0.003,0.005,0.003,0.004,0.004,0.003,0.002,0.004,0.003,0.003,0.003,0.002,0.002,0.002,0.002
441,0,0.003,0.005,0.003,0.004,0.004,0.003,0.002,0.004,0.003,0.003,0.003,0.002,0.002,0.002,0.002
442,0,0.003,0.004,0.003,0.004,0.004,0.003,0.002,0.004,0.003,0.002,0.003,0.002,0.002,0.002,0.002
443,0,0.003,0.004,0.003,0.004,0.004,0.003,0.002,0.004,0.003,0.003,0.003,0.002,0.002,0.002,0.002
444,0,0.003,0.004,0.003,0.004,0.004,0.003,0.002,0.004,0.003,0.002,0.002,0.002,0.002,0.002,0.002
445,0,0.003,0.004,0.003,0.004,0.004,0.003,0.002,0.004,0.003,0.002,0.002,0.002,0.002,0.002,0.002
446,0,0.003,0.004,0.003,0.004,0.004,0.002,0.002,0.004,0.003,0.002,0.002,0.002,0.002,0.002,0.002
447,0,0.003,0.004,0.003,0.004,0.004,0.002,0.002,0.004,0.003,0.002,0.002,0.002,0.002,0.002,0.002
448,0,0.003,0.004,0.003,0.004,0.004,0.002,0.002,0.004,0.003,0.002,0.002,0.002,0.002,0.002,0.002
449,0,0.003,0.004,0.003,0.004,0.004,0.002,0.002,0.004,0.003,0.002,0.002,0.002,0.002,0.002,0.002
450,0,0.003,0.004,0.003,0.004,0.004,0.002,0.002,0.004,0.003,0.002,0.002,0.002,0.002,0.002,0.002
451,0,0.003,0.004,0.003,0.004,0.004,0.002,0.002,0.004,0.003,0.002,0.002,0.002,0.002,0.002,0.002
452,0,0.003,0.004,0.003,0.004,0.004,0.002,0.002,0.004,0.002,0.002,0.002,0.002,0.002,0.002,0.002
453,0,0.003,0.004,0.003,0.004,0.004,0.002,0.002,0.004,0.002,0.002,0.002,0.002,0.001,0.002,0.002
454,0,0.003,0.004,0.003,0.004,0.004,0.002,0.002,0.004,0.002,0.002,0.002,0.002,0.002,0.002,0.002
455,0,0.003,0.004,0.003,0.003,0.004,0.002,0.002,0.004,0.002,0.002,0.002,0.002,0.002,0.002,0.002
456,0,0.003,0.004,0.003,0.003,0.004,0.002,0.002,0.004,0.002,0.002,0.002,0.002,0.001,0.002,0.002
457,0,0.003,0.004,0.003,0.003,0.004,0.002,0.002,0.004,0.002,0.002,0.002,0.002,0.001,0.002,0.002
458,0,0.003,0.004,0.003,0.003,0.004,0.002,0.002,0.004,0.002,0.002,0.002,0.002,0.001,0.002,0.002
459,0,0.003,0.004,0.002,0.003,0.004,0.002,0.002,0.004,0.002,0.002,0.002,0.002,0.001,0.001,0.002
460,0,0.003,0.004,0.002,0.003,0.004,0.002,0.002,0.004,0.002,0.002,0.002,0.002,0.001,0.001,0.001
461,0,0.003,0.004,0.002,0.003,0.004,0.002,0.002,0.004,0.002,0.002,0.002,0.002,0.001,0.001,0.002
462,0,0.003,0.004,0.002,0.003,0.004,0.002,0.002,0.004,0.002,0.002,0.002,0.002,0.001,0.002,0.002
463,0,0.003,0.004,0.002,0.003,0.004,0.002,0.002,0.004,0.002,0.002,0.002,0.002,0.001,0.001,0.002
464,0,0.003,0.004,0.002,0.003,0.003,0.002,0.002,0.004,0.002,0.002,0.002,0.002,0.001,0.001,0.002
465,0,0.003,0.004,0.002,0.003,0.004,0.002,0.002,0.004,0.002,0.002,0.002,0.002,0.001,0.001,0.001
466,0,0.002,0.004,0.002,0.003,0.004,0.002,0.002,0.004,0.002,0.002,0.002,0.002,0.001,0.001,0.001
467,0,0.002,0.003,0.002,0.003,0.003,0.002,0.002,0.003,0.002,0.002,0.002,0.002,0.001,0.001,0.001
468,0,0.002,0.004,0.002,0.003,0.003,0.002,0.002,0.003,0.002,0.002,0.002,0.002,0.001,0.001,0.001
469,0,0.002,0.003,0.002,0.003,0.003,0.002,0.002,0.003,0.002,0.002,0.002,0.002,0.001,0.001,0.001
470,0,0.002,0.003,0.002,0.003,0.003,0.002,0.002,0.003,0.002,0.002,0.002,0.002,0.001,0.001,0.001
471,0,0.002,0.003,0.002,0.003,0.003,0.002,0.002,0.003,0.002,0.002,0.002,0.002,0.001,0.001,0.001
472,0,0.002,0.003,0.002,0.003,0.003,0.002,0.002,0.003,0.002,0.002,0.002,0.002,0.001,0.001,0.001
473,0,0.002,0.003,0.002,0.003,0.003,0.002,0.002,0.003,0.002,0.002,0.002,0.002,0.001,0.001,0.001
474,0,0.002,0.003,0.002,0.003,0.003,0.002,0.002,0.003,0.002,0.002,0.002,0.002,0.001,0.001,0.001
475,0,0.002,0.003,0.002,0.003,0.003,0.002,0.002,0.003,0.002,0.001,0.001,0.001,0.001,0.001,0.001
476,0,0.002,0.003,0.002,0.003,0.003,0.002,0.002,0.003,0.002,0.002,0.001,0.001,0.001,0.001,0.001
477,0,0.002,0.003,0.002,0.003,0.003,0.002,0.001,0.003,0.002,0.001,0.001,0.001,0.001,0.001,0.001
478,0,0.002,0.003,0.002,0.003,0.003,0.002,0.001,0.003,0.002,0.001,0.001,0.001,0.001,0.001,0.001
479,0,0.002,0.003,0.002,0.003,0.003,0.001,0.001,0.003,0.002,0.001,0.001,0.001,0.001,0.001,0.001
480,0,0.002,0.003,0.002,0.003,0.003,0.002,0.001,0.003,0.002,0.001,0.001,0.001,0.001,0.001,0.001
481,0,0.002,0.003,0.002,0.003,0.003,0.001,0.001,0.003,0.001,0.001,0.001,0.001,0.001,0.001,0.001
482,0,0.002,0.003,0.002,0.002,0.003,0.001,0.001,0.003,0.001,0.001,0.001,0.001,0.001,0.001,0.001
483,0,0.002,0.003,0.002,0.002,0.003,0.001,0.001,0.003,0.001,0.001,0.001,0.001,0.001,0.001,0.001
484,0,0.002,0.003,0.002,0.002,0.003,0.001,0.001,0.003,0.001,0.001,0.001,0.001,0.001,0.001,0.001
485,0,0.002,0.003,0.002,0.002,0.003,0.001,0.001,0.003,0.001,0.001,0.001,0.001,0.001,0.001,0.001
486,0,0.002,0.003,0.002,0.002,0.003,0.001,0.001,0.003,0.001,0.001,0.001,0.001,0.001,0.001,0.001
487,0,0.002,0.003,0.002,0.002,0.003,0.001,0.001,0.003,0.001,0.001,0.001,0.001,0.001,0.001,0.001
488,0,0.002,0.003,0.002,0.002,0.003,0.001,0.001,0.003,0.001,0.001,0.001,0.001,0.001,0.001,0.001
489,0,0.002,0.003,0.002,0.002,0.003,0.001,0.001,0.003,0.001,0.001,0.001,0.001,0.001,0.001,0.001
490,0,0.002,0.003,0.002,0.002,0.003,0.001,0.001,0.003,0.001,0.001,0.001,0.001,0.001,0.001,0.001
491,0,0.002,0.003,0.002,0.002,0.003,0.001,0.001,0.003,0.001,0.001,0.001,0.001,0.001,0.001,0.001
492,0,0.002,0.003,0.002,0.002,0.003,0.001,0.001,0.003,0.001,0.001,0.001,0.001,0.001,0.001,0.001
493,0,0.002,0.003,0.002,0.002,0.003,0.001,0.001,0.003,0.001,0.001,0.001,0.001,0.001,0.001,0.001
494,0,0.002,0.003,0.002,0.002,0.003,0.001,0.001,0.003,0.001,0.001,0.001,0.001,0.001,0.001,0.001
495,0,0.002,0.003,0.002,0.002,0.003,0.001,0.001,0.003,0.001,0.001,0.001,0.001,0.001,0.001,0.001
496,0,0.002,0.003,0.002,0.002,0.003,0.001,0.001,0.003,0.001,0.001,0.001,0.001,0.001,0.001,0.001
497,0,0.002,0.003,0.002,0.002,0.003,0.001,0.001,0.003,0.001,0.001,0.001,0.001,0.001,0.001,0.001
498,0,0.002,0.003,0.002,0.002,0.003,0.001,0.001,0.003,0.001,0.001,0.001,0.001,0.001,0.001,0.001
499,0,0.002,0.003,0.002,0.002,0.003,0.001,0.001,0.003,0.001,0.001,0.001,0.001,0.001,0.001,0.001
500,0,0.002,0.003,0.002,0.002,0.003,0.001,0.001,0.003,0.001,0.001,0.001,0.001,0.001,0.001,0.001
501,0,0.002,0.003,0.002,0.002,0.003,0.001,0.001,0.003,0.001,0.001,0.001,0.001,0.001,0.001,0.001
502,0,0.002,0.003,0.002,0.002,0.003,0.001,0.001,0.003,0.001,0.001,0.001,0.001,0.001,0.001,0.001
503,0,0.002,0.003,0.002,0.002,0.003,0.001,0.001,0.003,0.001,0.001,0.001,0.001,0.001,0.001,0.001
504,0,0.002,0.003,0.002,0.002,0.003,0.001,0.001,0.003,0.001,0.001,0.001,0.001,0.001,0.001,0.001
505,0,0.002,0.003,0.002,0.002,0.003,0.001,0.001,0.003,0.001,0.001,0.001,0.001,0.001,0.001,0.001
506,0,0.002,0.003,0.002,0.002,0.003,0.001,0.001,0.003,0.001,0.001,0.001,0.001,0.001,0.001,0.001
507,0,0.002,0.003,0.002,0.002,0.003,0.001,0.001,0.003,0.001,0.001,0.001,0.001,0,0.001,0.001
508,0,0.002,0.003,0.002,0.002,0.003,0.001,0.001,0.002,0.001,0.001,0.001,0.001,0,0.001,0.001
509,0,0.002,0.003,0.002,0.002,0.003,0.001,0.001,0.002,0.001,0.001,0.001,0.001,0,0.001,0.001
510,0,0.001,0.003,0.001,0.002,0.003,0.001,0.001,0.002,0.001,0.001,0.001,0.001,0,0.001,0.001
511,0,0.001,0.003,0.001,0.002,0.002,0.001,0.001,0.002,0.001,0.001,0.001,0.001,0,0.001,0.001
512,0,0.002,0.003,0.001,0.002,0.003,0.001,0.001,0.002,0.001,0.001,0.001,0.001,0,0.001,0.001
513,0,0.002,0.003,0.002,0.002,0.003,0.001,0.001,0.002,0.001,0.001,0.001,0.001,0,0.001,0.001
514,0,0.002,0.003,0.001,0.002,0.003,0.001,0.001,0.003,0.001,0.001,0.001,0.001,0,0.001,0.001
515,0,0.002,0.003,0.001,0.002,0.003,0.001,0.001,0.003,0.001,0.001,0.001,0.001,0,0.001,0.001
516,0,0.002,0.003,0.001,0.002,0.003,0.001,0.001,0.002,0.001,0.001,0.001,0.001,0,0.001,0.001
517,0,0.002,0.003,0.001,0.002,0.003,0.001,0.001,0.003,0.001,0.001,0.001,0.001,0,0.001,0.001
518,0,0.001,0.003,0.001,0.002,0.002,0.001,0.001,0.002,0.001,0.001,0.001,0.001,0,0.001,0.001
519,0,0.001,0.003,0.001,0.002,0.002,0.001,0.001,0.002,0.001,0.001,0.001,0.001,0,0.001,0.001
520,0,0.001,0.003,0.001,0.002,0.002,0.001,0.001,0.002,0.001,0.001,0.001,0.001,0,0,0.001
521,0,0.001,0.003,0.001,0.002,0.002,0.001,0.001,0.002,0.001,0.001,0.001,0.001,0,0.001,0.001
522,0,0.001,0.003,0.001,0.002,0.002,0.001,0.001,0.002,0.001,0.001,0.001,0.001,0,0.001,0.001
523,0,0.001,0.003,0.001,0.002,0.002,0.001,0.001,0.002,0.001,0.001,0.001,0.001,0,0.001,0.001
524,0,0.001,0.003,0.001,0.002,0.002,0.001,0.001,0.002,0.001,0.001,0.001,0.001,0,0,0.001
525,0,0.001,0.003,0.001,0.002,0.002,0.001,0.001,0.002,0.001,0.001,0.001,0.001,0,0,0.001
526,0,0.001,0.003,0.001,0.002,0.002,0.001,0.001,0.002,0.001,0.001,0.001,0.001,0,0.001,0.001
527,0,0.001,0.002,0.001,0.002,0.002,0.001,0.001,0.002,0.001,0.001,0.001,0.001,0,0,0.001
528,0,0.001,0.002,0.001,0.002,0.002,0.001,0.001,0.002,0.001,0.001,0.001,0.001,0,0,0.001
529,0,0.001,0.002,0.001,0.002,0.002,0.001,0.001,0.002,0.001,0.001,0.001,0.001,0,0,0
530,0,0.001,0.002,0.001,0.002,0.002,0.001,0.001,0.002,0.001,0.001,0.001,0.001,0,0,0
531,0,0.001,0.002,0.001,0.002,0.002,0.001,0.001,0.002,0.001,0.001,0.001,0.001,0,0,0
532,0,0.001,0.002,0.001,0.002,0.002,0.001,0.001,0.002,0.001,0.001,0.001,0.001,0,0,0
533,0,0.001,0.002,0.001,0.002,0.002,0.001,0.001,0.002,0.001,0.001,0.001,0.001,0,0.001,0
534,0,0.001,0.002,0.001,0.002,0.002,0.001,0.001,0.002,0.001,0.001,0.001,0.001,0,0,0
535,0,0.001,0.003,0.001,0.002,0.002,0.001,0.001,0.002,0.001,0.001,0.001,0.001,0,0.001,0.001
536,0.001,0.002,0.004,0.002,0.003,0.003,0.002,0.002,0.003,0.002,0.002,0.002,0.002,0.001,0.002,0.002
537,0,0.001,0.003,0.001,0.002,0.002,0.001,0.001,0.002,0.001,0.001,0.001,0.001,0,0.001,0.001
538,0,0.001,0.002,0.001,0.002,0.002,0.001,0.001,0.002,0,0.001,0.001,0.001,0,0,0
539,0,0.001,0.002,0.001,0.002,0.002,0.001,0.001,0.002,0,0.001,0.001,0.001,0,0,0
540,0,0.001,0.002,0.001,0.001,0.002,0.001,0.001,0.002,0,0.001,0,0.001,0,0,0
541,0,0.001,0.002,0.001,0.001,0.002,0,0.001,0.002,0,0.001,0,0.001,0,0,0
542,0,0.001,0.002,0.001,0.001,0.002,0,0,0.002,0,0.001,0,0.001,0,0,0
543,0,0.001,0.002,0.001,0.001,0.002,0.001,0,0.002,0,0.001,0,0,0,0,0
544,0,0.001,0.002,0.001,0.001,0.002,0.001,0.001,0.002,0,0.001,0,0.001,0,0,0
545,0,0.001,0.002,0.001,0.001,0.002,0.001,0.001,0.002,0,0.001,0,0.001,0,0,0
546,0,0.001,0.002,0.001,0.001,0.002,0,0,0.002,0,0.001,0,0.001,0,0,0
547,0,0.001,0.002,0.001,0.001,0.002,0,0,0.002,0,0.001,0,0,0,0,0
548,0,0.001,0.002,0.001,0.001,0.002,0,0.001,0.002,0,0.001,0,0.001,0,0,0
549,0,0.001,0.002,0.001,0.001,0.002,0,0.001,0.002,0,0.001,0,0.001,0,0,0
550,0,0.001,0.002,0.001,0.001,0.002,0,0.001,0.002,0,0.001,0,0,0,0,0
551,0,0.001,0.002,0.001,0.001,0.002,0,0.001,0.002,0,0.001,0,0,0,0,0
552,0,0.001,0.002,0.001,0.001,0.002,0,0,0.002,0,0.001,0,0,0,0,0
553,0,0.001,0.002,0.001,0.001,0.002,0,0.001,0.002,0,0.001,0,0,0,0,0
554,0,0.001,0.002,0.001,0.001,0.002,0,0.001,0.002,0,0.001,0,0,0,0,0
555,0,0.001,0.002,0.001,0.001,0.002,0,0.001,0.002,0,0.001,0,0.001,0,0,0
556,0,0.001,0.002,0.001,0.001,0.002,0,0,0.002,0,0.001,0,0,0,0,0
557,0,0.001,0.002,0.001,0.001,0.002,0,0,0.002,0,0,0,0,0,0,0
558,0,0.001,0.002,0.001,0.001,0.002,0,0,0.002,0,0,0,0,0,0,0
559,0,0.001,0.002,0.001,0.001,0.002,0,0,0.002,0,0.001,0,0,0,0,0
560,0,0.001,0.002,0.001,0.001,0.002,0,0.001,0.002,0,0.001,0,0,0,0,0
561,0,0.001,0.002,0.001,0.001,0.002,0,0.001,0.002,0,0.001,0,0.001,0,0,0
562,0,0.001,0.002,0.001,0.001,0.002,0,0.001,0.002,0,0.001,0,0,0,0,0
563,0,0.001,0.002,0.001,0.001,0.002,0,0.001,0.002,0,0.001,0,0,0,0,0
564,0,0.001,0.002,0.001,0.001,0.002,0,0.001,0.002,0,0.001,0,0.001,0,0,0
565,0,0.001,0.002,0.001,0.001,0.002,0,0.001,0.002,0,0.001,0,0.001,0,0,0
566,0,0.001,0.002,0.001,0.001,0.002,0,0.001,0.002,0,0.001,0,0.001,0,0,0
567,0,0.001,0.002,0.001,0.001,0.002,0,0.001,0.002,0,0.001,0,0.001,0,0,0
568,0,0.001,0.002,0.001,0.001,0.002,0,0.001,0.002,0,0.001,0,0.001,0,0,0
569,0,0.001,0.002,0.001,0.001,0.002,0,0.001,0.002,0,0,0,0.001,0,0,0
570,0,0.001,0.002,0.001,0.001,0.002,0,0.001,0.002,0,0,0,0.001,0,0,0
571,0,0.001,0.002,0.001,0.001,0.002,0,0.001,0.002,0,0,0,0.001,0,0,0
572,0,0.001,0.002,0.001,0.001,0.002,0,0.001,0.002,0,0,0,0.001,0,0,0
573,0,0.001,0.002,0.001,0.001,0.002,0,0.001,0.002,0,0,0,0.001,0,0,0
574,0,0.001,0.002,0.001,0.001,0.002,0,0.001,0.002,0,0,0,0.001,0,0,0
575,0,0.001,0.002,0.001,0.001,0.002,0,0.001,0.002,0,0,0,0,0,0,0
576,0,0.001,0.002,0.001,0.001,0.002,0,0.001,0.002,0,0,0,0.001,0,0,0
577,0,0.001,0.002,0.001,0.001,0.002,0,0.001,0.002,0,0,0,0,0,0,0
578,0,0.001,0.002,0.001,0.001,0.002,0,0.001,0.002,0,0,0,0,0,0,0
579,0,0.001,0.002,0.001,0.001,0.002,0,0.001,0.002,0,0,0,0.001,0,0,0
580,0,0.001,0.002,0.001,0.001,0.002,0,0.001,0.002,0,0,0,0.001,0,0,0
581,0,0.001,0.002,0.001,0.001,0.002,0,0.001,0.002,0,0,0,0.001,0,0,0
582,0,0.001,0.002,0.001,0.001,0.002,0,0,0.002,0,0,0,0.001,0,0,0
583,0,0.001,0.002,0.001,0.001,0.002,0,0.001,0.002,0,0,0,0.001,0,0,0
584,0,0.001,0.002,0.001,0.001,0.002,0,0.001,0.002,0,0.001,0,0.001,0,0,0
585,0,0.001,0.002,0.001,0.001,0.002,0,0,0.002,0,0,0,0.001,0,0,0
586,0,0.001,0.002,0.001,0.001,0.002,0,0.001,0.002,0,0,0,0.001,0,0,0
587,0,0.001,0.002,0.001,0.001,0.002,0,0.001,0.002,0,0,0,0.001,0,0,0
588,0,0.001,0.002,0.001,0.001,0.002,0,0.001,0.002,0,0,0,0.001,0,0,0
589,0,0.001,0.002,0.001,0.001,0.002,0,0,0.002,0,0,0,0,0,0,0
590,0,0.001,0.002,0.001,0.001,0.002,0,0,0.001,0,0,0,0,0,0,0
591,0,0.001,0.002,0.001,0.001,0.002,0,0,0.002,0,0,0,0,0,0,0
592,0,0.001,0.002,0.001,0.001,0.002,0,0,0.002,0,0,0,0,0,0,0
593,0,0.001,0.002,0.001,0.001,0.002,0,0.001,0.002,0,0,0,0,0,0,0
594,0,0.001,0.002,0.001,0.001,0.002,0,0,0.002,0,0,0,0.001,0,0,0
595,0,0.001,0.002,0.001,0.001,0.002,0,0,0.001,0,0,0,0,0,0,0
596,0,0.001,0.002,0.001,0.001,0.002,0,0.001,0.002,0,0,0,0,0,0,0
597,0,0.001,0.002,0.001,0.001,0.002,0,0,0.001,0,0,0,0,0,0,0
598,0,0.001,0.002,0.001,0.001,0.002,0,0,0.001,0,0,0,0,0,0,0
599,0,0.001,0.002,0.001,0.001,0.002,0,0,0.001,0,0,0,0,0,0,0
600,0,0.001,0.002,0.001,0.001,0.002,0,0,0.001,0,0,0,0,0,0,0
601,0,0.001,0.002,0.001,0.001,0.002,0,0,0.001,0,0,0,0,0,0,0
602,0,0.001,0.002,0.001,0.001,0.002,0,0,0.001,0,0,0,0,0,0,0
603,0,0.001,0.002,0.001,0.001,0.002,0,0,0.001,0,0,0,0,0,0,0
604,0,0.001,0.002,0.001,0.001,0.002,0,0,0.001,0,0,0,0,0,0,0
605,0,0.001,0.002,0.001,0.001,0.002,0,0,0.001,0,0,0,0,0,0,0
606,0,0.001,0.002,0.001,0.001,0.002,0,0,0.001,0,0,0,0,0,0,0
607,0,0.001,0.002,0.001,0.001,0.002,0,0,0.001,0,0,0,0,0,0,0
608,0,0.001,0.002,0.001,0.001,0.002,0,0,0.001,0,0,0,0,0,0,0
609,0,0.001,0.002,0.001,0.001,0.002,0,0,0.001,0,0,0,0,0,0,0
610,0,0.001,0.002,0.001,0.001,0.002,0,0,0.001,0,0,0,0,0,0,0
611,0,0.001,0.002,0.001,0.001,0.002,0,0,0.001,0,0,0,0,0,0,0
612,0,0.001,0.002,0.001,0.001,0.002,0,0,0.001,0,0,0,0,0,0,0
613,0,0.001,0.002,0.001,0.001,0.002,0,0,0.001,0,0,0,0,0,0,0
614,0,0.001,0.002,0.001,0.001,0.002,0,0,0.001,0,0,0,0,0,0,0
615,0,0.001,0.002,0.001,0.001,0.002,0,0,0.001,0,0,0,0,0,0,0
616,0,0.001,0.002,0.001,0.001,0.002,0,0,0.001,0,0,0,0,0,0,0
617,0,0.001,0.002,0.001,0.001,0.002,0,0,0.001,0,0,0,0,0,0,0
618,0,0.001,0.002,0.001,0.001,0.002,0,0,0.001,0,0,0,0,0,0,0
619,0,0.001,0.002,0.001,0.001,0.002,0,0,0.001,0,0,0,0,0,0,0
620,0,0.001,0.002,0.001,0.001,0.002,0,0,0.001,0,0,0,0,0,0,0
621,0,0.001,0.002,0.001,0.001,0.002,0,0,0.001,0,0,0,0,0,0,0
622,0,0.001,0.002,0.001,0.001,0.002,0,0,0.001,0,0,0,0,0,0,0
623,0,0.001,0.002,0.001,0.001,0.002,0,0,0.001,0,0,0,0,0,0,0
624,0,0.001,0.002,0.001,0.001,0.002,0,0,0.001,0,0,0,0,0,0,0
625,0,0,0.002,0.001,0.001,0.002,0,0,0.001,0,0,0,0,0,0,0
626,0,0.001,0.002,0.001,0.001,0.002,0,0,0.001,0,0,0,0,0,0,0
627,0,0,0.002,0.001,0.001,0.002,0,0,0.001,0,0,0,0,0,0,0
628,0,0,0.002,0.001,0.001,0.002,0,0,0.001,0,0,0,0,0,0,0
629,0,0,0.002,0.001,0.001,0.002,0,0,0.001,0,0,0,0,0,0,0
630,0,0,0.002,0.001,0.001,0.002,0,0,0.001,0,0,0,0,0,0,0
631,0,0,0.002,0.001,0.001,0.002,0,0,0.001,0,0,0,0,0,0,0
632,0,0.001,0.002,0.001,0.001,0.002,0,0,0.001,0,0,0,0,0,0,0
633,0,0.001,0.002,0.001,0.001,0.002,0,0,0.001,0,0,0,0,0,0,0
634,0,0,0.002,0.001,0.001,0.002,0,0,0.001,0,0,0,0,0,0,0
635,0,0,0.002,0.001,0.001,0.002,0,0,0.001,0,0,0,0,0,0,0
636,0,0,0.002,0.001,0.001,0.002,0,0,0.001,0,0,0,0,0,0,0
637,0,0,0.002,0,0.001,0.002,0,0,0.001,0,0,0,0,0,0,0
638,0,0,0.002,0,0.001,0.001,0,0,0.001,0,0,0,0,-0.001,0,0
639,0,0,0.002,0,0.001,0.002,0,0,0.001,0,0,0,0,-0.001,0,0
640,0,0,0.002,0.001,0.001,0.002,0,0,0.001,0,0,0,0,0,0,0
641,0,0,0.002,0,0.001,0.002,0,0,0.001,0,0,0,0,0,0,0
642,0,0,0.002,0,0.001,0.002,0,0,0.001,0,0,0,0,0,0,0
643,0,0,0.002,0,0.001,0.001,0,0,0.001,0,0,0,0,-0.001,0,0
644,0,0,0.002,0.001,0.001,0.002,0,0,0.001,0,0,0,0,0,0,0
645,0,0,0.002,0,0.001,0.001,0,0,0.001,0,0,0,0,0,0,0
646,0,0,0.002,0,0.001,0.001,0,0,0.001,0,0,0,0,0,0,0
647,0,0,0.002,0.001,0.001,0.002,0,0,0.001,0,0,0,0,0,0,0
648,0,0,0.002,0.001,0.001,0.002,0,0,0.001,0,0,0,0,0,0,0
649,0,0.001,0.002,0.001,0.001,0.002,0,0,0.001,0,0,0,0,0,0,0
650,0,0.001,0.002,0.001,0.001,0.002,0,0,0.001,0,0,0,0,0,0,0
651,0,0.001,0.002,0,0.001,0.002,0,0,0.001,0,0,0,0,0,0,0
652,0,0.001,0.002,0,0.001,0.002,0,0,0.001,0,0,0,0,0,0,0
653,0,0.001,0.002,0.001,0.001,0.001,0,0,0.001,0,0,0,0,0,0,0
654,0,0.001,0.002,0.001,0.001,0.002,0,0,0.001,0,0,0,0,0,0,0
655,0,0.001,0.002,0.001,0.001,0.002,0,0,0.001,0,0,0,0,0,0,0
656,0,0.001,0.002,0.001,0.001,0.002,0,0,0.001,0,0,0,0,0,0,0
657,0,0.001,0.002,0.001,0.001,0.002,0,0,0.001,0,0,0,0,0,0,0
658,0,0,0.002,0.001,0.001,0.001,0,0,0.001,0,0,0,0,0,0,0
659,0,0,0.002,0.001,0.001,0.001,0,0,0.001,0,0,0,0,0,0,0
660,0,0.001,0.002,0.001,0.001,0.002,0,0,0.001,0,0,0,0,0,0,0
661,0,0.001,0.002,0.001,0.001,0.002,0,0,0.001,0,0,0,0,0,0,0
662,0,0.001,0.002,0.001,0.001,0.002,0,0,0.001,0,0,0,0,0,0,0
663,0,0.001,0.002,0,0.001,0.001,0,0,0.001,0,0,0,0,0,0,0
664,0,0.001,0.002,0.001,0.001,0.001,0,0,0.001,0,0,0,0,0,0,0
665,0,0.001,0.002,0.001,0.001,0.002,0,0,0.001,0,0,0,0,0,0,0
666,0,0.001,0.002,0.001,0.001,0.002,0,0,0.001,0,0,0,0,0,0,0
667,0,0.001,0.002,0,0.001,0.001,0,0,0.001,0,0,0,0,0,0,0
668,0,0.001,0.002,0.001,0.001,0.002,0,0,0.001,0,0,0,0,0,0,0
669,0,0.001,0.002,0.001,0.001,0.002,0,0,0.001,0,0,0,0,0,0,0
670,0,0.001,0.002,0.001,0.001,0.002,0,0,0.001,0,0,0,0,0,0,0
671,0,0.001,0.002,0,0.001,0.002,0,0,0.001,0,0,0,0,0,0,0
672,0,0.001,0.002,0.001,0.001,0.002,0,0,0.001,0,0,0,0,0,0,0
673,0,0.001,0.002,0.001,0.001,0.002,0,0,0.001,0,0,0,0,0,0,0
674,0,0.001,0.002,0.001,0.001,0.002,0,0,0.001,0,0,0,0,0,0,0
675,0,0.001,0.002,0.001,0.001,0.002,0,0,0.001,0,0,0,0,0,0,0
676,0,0.001,0.002,0.001,0.001,0.002,0,0,0.001,0,0,0,0,0,0,0
677,0,0.001,0.002,0.001,0.001,0.002,0,0,0.001,0,0,0,0,0,0,0
678,0,0.001,0.002,0,0.001,0.001,0,0,0.001,0,0,0,0,0,0,0
679,0,0.001,0.002,0,0.001,0.001,0,0,0.001,0,0,0,0,0,0,0
680,0,0.001,0.002,0.001,0.001,0.001,0,0,0.001,0,0,0,0,0,0,0
681,0,0.001,0.002,0.001,0.001,0.002,0,0,0.001,0,0,0,0,0,0,0
682,0,0.001,0.002,0.001,0.001,0.002,0,0,0.001,0,0,0,0,0,0,0
683,0,0.001,0.002,0,0.001,0.001,0,0,0.001,0,0,0,0,0,0,0
684,0,0.001,0.002,0,0.001,0.001,0,0,0.001,0,0,0,0,0,0,0
685,0,0.001,0.002,0.001,0.001,0.002,0,0,0.001,0,0,0,0,0,0,0
686,0,0.001,0.002,0.001,0.001,0.001,0,0,0.001,0,0,0,0,0,0,0
687,0,0.001,0.002,0.001,0.001,0.001,0,0,0.001,0,0,0,0,0,0,0
688,0,0.001,0.002,0.001,0.001,0.001,0,0,0.001,0,0,0,0,0,0,0
689,0,0.001,0.002,0.001,0.001,0.001,0,0,0.001,0,0,0,0,0,0,0
690,0,0.001,0.002,0.001,0.001,0.001,0,0,0.001,0,0,0,0,0,0,0
691,0,0,0.002,0,0.001,0.001,0,0,0.001,0,0,0,0,0,0,0
692,0,0,0.002,0,0.001,0.001,0,0,0.001,0,0,0,0,0,0,0
693,0,0,0.002,0,0.001,0.001,0,0,0.001,0,0,0,0,0,0,0
694,0,0,0.002,0,0.001,0.001,0,0,0.001,0,0,0,0,0,0,0
695,0,0,0.002,0,0.001,0.001,0,0,0.001,0,0,0,0,0,0,0
696,0,0,0.002,0,0.001,0.001,0,0,0.001,0,0,0,0,0,0,0
697,0,0,0.002,0.001,0.001,0.001,0,0,0.001,0,0,0,0,0,0,0
698,0,0,0.002,0.001,0.001,0.001,0,0,0.001,0,0,0,0,0,0,0
699,0,0,0.002,0.001,0.001,0.001,0,0,0.001,0,0,0,0,0,0,0
700,0,0,0.002,0.001,0.001,0.001,0,0,0.001,0,0,0,0,0,0,0
701,0,0.001,0.002,0.001,0.001,0.001,0,0,0.001,0,0,0,0,0,0,0
702,0,0.001,0.002,0.001,0.001,0.001,0,0,0.001,0,0,0,0,0,0,0
703,0,0,0.001,0.001,0.001,0.001,0,0,0.001,0,0,0,0,0,0,0
704,0,0,0.002,0.001,0.001,0.001,0,0,0.001,0,0,0,0,0,0,0
705,0,0,0.002,0.001,0.001,0.001,0,0,0.001,0,0,0,0,0,0,0
706,0,0,0.002,0.001,0.001,0.001,0,0,0.001,0,0,0,0,0,0,0
707,0,0,0.002,0.001,0.001,0.001,0,0,0.001,0,0,0,0,0,0,0
708,0,0,0.001,0.001,0.001,0.001,0,0,0.001,0,0,0,0,0,0,0
709,0,0,0.001,0.001,0.001,0.001,0,0,0.001,0,0,0,0,0,0,0
710,0,0,0.001,0,0.001,0.001,0,0,0.001,0,0,0,0,-0.001,0,0
711,0,0,0.001,0.001,0.001,0.001,0,0,0.001,0,0,0,0,-0.001,0,0
712,0,0,0.002,0.001,0.001,0.001,0,0,0.001,0,0,0,0,0,0,0
713,0,0,0.002,0.001,0.001,0.001,0,0,0.001,0,0,0,0,0,0,0
714,0,0,0.002,0,0.001,0.001,0,0,0.001,0,0,0,0,0,0,0
715,0,0,0.001,0,0.001,0.001,0,0,0.001,0,0,0,0,-0.001,0,0
716,0,0,0.001,0,0.001,0.001,0,0,0.001,0,0,0,0,-0.001,0,0
717,0,0,0.002,0,0.001,0.001,0,0,0.001,0,0,0,0,0,0,0
718,0,0,0.002,0.001,0.001,0.001,0,0,0.001,0,0,0,0,0,0,0
719,0,0,0.002,0,0.001,0.001,0,0,0.001,0,0,0,0,0,0,0
720,0,0,0.001,0,0.001,0.001,0,0,0.001,0,0,0,0,0,0,0
721,0,0,0.001,0,0.001,0.001,0,0,0.001,0,0,0,0,0,0,0
722,0,0,0.001,0,0.001,0.001,0,0,0.001,0,0,0,0,-0.001,0,0
723,0,0,0.001,0,0.001,0.001,0,0,0.001,0,0,0,0,-0.001,0,0
724,0,0,0.001,0,0.001,0.001,0,0,0.001,0,0,0,0,-0.001,0,0
725,0,0,0.001,0,0.001,0.001,0,0,0.001,0,0,0,0,0,0,0
726,0,0,0.001,0,0.001,0.001,0,0,0.001,0,0,0,0,-0.001,0,0
727,0,0,0.002,0,0.001,0.001,0,0,0.001,0,0,0,0,0,0,0
728,0,0,0.001,0,0.001,0.001,0,0,0.001,0,0,0,0,-0.001,0,0
729,0,0,0.001,0,0.001,0.001,0,0,0.001,0,0,0,0,-0.001,0,0
730,0,0,0.001,0,0.001,0.001,0,0,0.001,0,0,0,0,-0.001,0,0
731,0,0,0.001,0,0.001,0.001,0,0,0.001,0,0,0,0,-0.001,0,0
732,0,0,0.001,0,0.001,0.001,0,0,0.001,0,0,0,0,-0.001,0,0
733,0,0,0.002,0.001,0.001,0.001,0,0,0.001,0,0,0,0,0,0,0
734,0,0,0.001,0,0.001,0.001,0,0,0.001,0,0,0,0,-0.001,0,0
735,0,0,0.001,0,0.001,0.001,0,0,0.001,0,0,0,0,-0.001,0,0
736,0,0,0.001,0,0.001,0.001,0,0,0.001,0,0,0,0,-0.001,0,0
737,0,0,0.001,0,0.001,0.001,0,0,0.001,0,0,0,0,-0.001,0,0
738,0,0,0.001,0,0.001,0.001,0,0,0.001,0,0,0,0,-0.001,0,0
739,0,0,0.001,0,0.001,0.001,0,0,0.001,0,0,0,0,-0.001,0,0
740,0,0,0.001,0,0.001,0.001,0,0,0.001,0,0,0,0,-0.001,0,0
741,0,0,0.001,0,0.001,0.001,0,0,0.001,0,0,0,0,-0.001,0,0
742,0,0,0.001,0,0.001,0.001,0,0,0.001,0,0,0,0,-0.001,0,0
743,0,0,0.001,0,0.001,0.001,0,0,0.001,0,0,0,0,-0.001,0,0
744,0,0,0.001,0,0.001,0.001,0,0,0.001,0,0,0,0,0,0,0
745,0,0,0.001,0,0.001,0.001,0,0,0.001,0,0,0,0,-0.001,0,0
746,0,0,0.001,0,0.001,0.001,0,0,0.001,0,0,0,0,-0.001,0,0
747,0,0,0.001,0,0.001,0.001,0,0,0.001,0,0,0,0,-0.001,0,0
748,0,0,0.001,0,0.001,0.001,0,0,0.001,0,0,0,0,-0.001,0,0
749,0,0,0.001,0,0.001,0.001,0,0,0.001,0,0,0,0,0,0,0
750,0,0,0.001,0,0.001,0.001,0,0,0.001,0,0,0,0,-0.001,0,0
751,0,0,0.001,0,0.001,0.001,0,0,0.001,0,0,0,0,0,0,0
752,0,0,0.001,0,0.001,0.001,0,0,0.001,0,0,0,0,0,0,0
753,0,0,0.001,0,0.001,0.001,0,0,0.001,0,0,0,0,-0.001,0,0
754,0,0,0.001,0,0.001,0.001,0,0,0.001,0,0,0,0,-0.001,0,0
755,0,0,0.001,0,0.001,0.001,0,0,0.001,0,0,0,0,0,0,0
756,0,0,0.001,0,0.001,0.001,0,0,0.001,0,0,0,0,0,0,0
757,0,0,0.001,0,0.001,0.001,0,0,0.001,0,0,0,0,0,0,0
758,0,0,0.001,0,0.001,0.001,0,0,0.001,0,0,0,0,0,0,0
759,0,0.001,0.002,0.001,0.001,0.001,0,0,0.001,0,0,0,0,0,0,0
760,0.001,0.002,0.003,0.002,0.002,0.003,0.001,0.001,0.002,0.001,0.001,0.001,0.002,0.001,0.001,0.001
761,0,0.001,0.002,0.001,0.001,0.001,0,0,0.001,0,0,0,0,0,0,0
762,0,0,0.001,0,0.001,0.001,0,0,0.001,0,0,0,0,0,0,0
763,0,0,0.001,0,0.001,0.001,0,0,0.001,0,0,0,0,-0.001,0,0
764,0,0,0.001,0,0.001,0.001,0,0,0.001,0,0,0,0,0,0,0
765,0,0,0.001,0,0.001,0.001,0,0,0.001,0,0,0,0,-0.001,0,0
766,0,0,0.001,0,0.001,0.001,0,0,0.001,0,0,0,0,-0.001,0,0
767,0,0,0.001,0,0.001,0.001,0,0,0.001,0,0,0,0,0,0,0
768,0,0,0.001,0,0.001,0.001,0,0,0.001,0,0,0,0,0,0,0
769,0,0,0.001,0,0.001,0.001,0,0,0.001,0,0,0,0,0,0,0
770,0,0,0.001,0,0.001,0.001,0,0,0.001,0,0,0,0,0,0,0
771,0,0,0.001,0,0.001,0.001,0,0,0.001,0,0,0,0,0,0,0
772,0,0,0.001,0,0.001,0.001,0,0,0.001,0,0,0,0,0,0,0
773,0,0,0.001,0,0.001,0.001,0,0,0.001,0,0,0,0,0,0,0
774,0,0,0.001,0,0.001,0.001,0,0,0.001,0,0,0,0,0,0,0
775,0,0,0.001,0.001,0.001,0.001,0,0,0.001,0,0,0,0,0,0,0
776,0,0,0.001,0,0.001,0.001,0,0,0.001,0,0,0,0,0,0,0
777,0,0,0.001,0,0.001,0.001,0,0,0.001,0,0,0,0,0,0,0
778,0,0,0.001,0,0.001,0.001,0,0,0.001,0,0,0,0,0,0,0
779,0,0,0.001,0,0.001,0.001,0,0,0.001,0,0,0,0,0,0,0
780,0,0,0.001,0,0.001,0.001,0,0,0.001,0,0,0,0,0,0,0
781,0,0,0.001,0,0.001,0.001,0,0,0.001,0,0,0,0,0,0,0
782,0,0,0.001,0,0.001,0.001,0,0,0.001,0,0,0,0,0,0,0
783,0,0,0.001,0,0.001,0.001,0,0,0.001,0,0,0,0,0,0,0
784,0,0,0.001,0,0.001,0.001,0,0,0.001,0,0,0,0,0,0,0
785,0,0,0.001,0,0.001,0.001,0,0,0.001,0,0,0,0,0,0,0
786,0,0,0.001,0,0.001,0.001,0,0,0.001,0,0,0,0,0,0,0
787,0,0,0.001,0,0.001,0.001,0,0,0.001,0,0,0,0,0,0,0
788,0,0,0.001,0,0.001,0.001,0,0,0.001,0,0,0,0,0,0,0
789,0,0,0.001,0,0.001,0.001,0,0,0.001,0,0,0,0,0,0,0
790,0,0,0.001,0,0.001,0.001,0,0,0.001,0,0,0,0,0,0,0
791,0,0,0.001,0,0.001,0.001,0,0,0.001,0,0,0,0,0,0,0
792,0,0,0.001,0,0.001,0.001,0,0,0.001,0,0,0,0,0,0,0
793,0,0,0.001,0,0.001,0.001,0,0,0.001,0,0,0,0,0,0,0
794,0,0,0.001,0,0.001,0.001,0,0,0.001,0,0,0,0,0,0,0
795,0,0,0.001,0,0.001,0.001,0,0,0.001,0,0,0,0,0,0,0
796,0,0,0.001,0,0.001,0.001,0,0,0.001,0,0,0,0,0,0,0
797,0,0,0.001,0,0.001,0.001,0,0,0.001,0,0,0,0,0,0,0
798,0,0,0.001,0,0.001,0.001,0,0,0.001,0,0,0,0,0,0,0
799,0,0,0.001,0,0.001,0.001,0,0,0.001,0,0,0,0,0,0,0
800,0,0,0.001,0,0.001,0.001,0,0,0.001,0,0,0,0,0,0,0
801,0,0,0.001,0,0.001,0.001,0,0,0.001,0,0,0,0,0,0,0
802,0,0,0.001,0,0.001,0.001,0,0,0.001,0,0,0,0,0,0,0
803,0,0,0.001,0,0.001,0.001,0,0,0.001,0,0,0,0,0,0,0
804,0,0,0.001,0,0.001,0.001,0,0,0.001,0,0,0,0,0,0,0
805,0,0,0.001,0,0.001,0.001,0,0,0.001,0,0,0,0,0,0,0
806,0,0,0.001,0.001,0.001,0.001,0,0,0.001,0,0,0,0,0,0,0
807,0,0,0.001,0.001,0.001,0.001,0,0,0.001,0,0,0,0,0,0,0
808,0,0,0.001,0,0.001,0.001,0,0,0.001,0,0,0,0,0,0,0
809,0,0,0.001,0,0.001,0.001,0,0,0.001,0,0,0,0,0,0,0
810,0,0,0.001,0,0.001,0.001,0,0,0.001,0,0,0,0,0,0,0
811,0,0,0.001,0,0.001,0.001,0,0,0.001,0,0,0,0,0,0,0
812,0,0,0.001,0,0.001,0.001,0,0,0.001,0,0,0,0,0,0,0
813,0,0,0.001,0.001,0.001,0.001,0,0,0.001,0,0,0,0,0,0,0
814,0,0,0.001,0,0.001,0.001,0,0,0.001,0,0,0,0,0,0,0
815,0,0,0.001,0,0.001,0.001,0,0,0.001,0,0,0,0,0,0,0
816,0,0,0.001,0.001,0.001,0.001,0,0,0.001,0,0,0,0,0,0,0
817,0,0,0.001,0,0.001,0.001,0,0,0.001,0,0,0,0,0,0,0
818,0,0,0.001,0,0.001,0.001,0,0,0.001,0,0,0,0,0,0,0
819,0,0,0.001,0,0.001,0.001,0,0,0.001,0,0,0,0,0,0,0
820,0,0,0.001,0,0.001,0.001,0,0,0.001,0,0,0,0,0,0,0
821,0,0,0.001,0,0.001,0.001,0,0,0.001,0,0,0,0,0,0,0
822,0,0,0.001,0,0.001,0.001,0,0,0.001,0,0,0,0,0,0,0
823,0,0,0.001,0,0.001,0.001,0,0,0.001,0,0,0,0,0,0,0
824,0,0,0.001,0,0.001,0.001,0,0,0.001,0,0,0,0,0,0,0
825,0,0,0.001,0,0.001,0.001,0,0,0.001,0,0,0,0,0,0,0
826,0,0,0.001,0,0.001,0.001,0,0,0.001,0,0,0,0,0,0,0
827,0,0,0.001,0,0.001,0.001,0,0,0.001,0,0,0,0,0,0,0
828,0,0,0.001,0,0.001,0.001,0,0,0.001,0,0,0,0,0,0,0
829,0,0,0.001,0,0.001,0.001,0,0,0.001,0,0,0,0,-0.001,0,0
830,0,0,0.001,0,0.001,0.001,0,0,0,0,0,0,0,-0.001,0,0
831,0,0,0.001,0,0.001,0.001,0,0,0,0,0,0,0,0,0,0
832,0,0,0.001,0,0.001,0.001,0,0,0,0,0,0,0,0,0,0
833,0,0,0.001,0,0.001,0.001,0,0,0.001,0,0,0,0,0,0,0
834,0,0,0.001,0,0.001,0.001,0,0,0.001,0,0,0,0,0,0,0
835,0,0,0.001,0,0.001,0.001,0,0,0,0,0,0,0,0,0,0
836,0,0,0.001,0,0.001,0.001,0,0,0,0,0,0,0,-0.001,0,0
837,0,0,0.001,0,0.001,0.001,0,0,0,0,0,0,0,0,0,0
838,0,0,0.001,0,0.001,0.001,0,0,0,0,0,0,0,-0.001,0,0
839,0,0,0.001,0,0.001,0.001,0,0,0,0,0,0,0,-0.001,0,0
840,0,0,0.001,0,0.001,0.001,0,0,0,0,0,0,0,-0.001,0,0
841,0,0,0.001,0,0.001,0.001,0,0,0,0,0,0,0,-0.001,0,0
842,0,0,0.001,0,0.001,0.001,0,0,0,0,0,0,0,-0.001,0,0
843,0,0,0.001,0,0,0.001,0,0,0,0,0,0,0,-0.001,-0.001,0
844,0,0,0.001,0,0.001,0.001,0,0,0,0,0,0,0,-0.001,0,0
845,0,0,0.001,0,0.001,0.001,0,0,0,0,0,0,0,-0.001,0,0
846,0,0,0.001,0,0,0.001,0,0,0,0,0,0,0,-0.001,0,0
847,0,0,0.001,0,0.001,0.001,0,0,0,0,0,0,0,-0.001,0,0
848,0,0,0.001,0,0.001,0.001,0,0,0,0,0,0,0,-0.001,0,0
849,0,0,0.001,0,0.001,0.001,0,0,0,0,0,0,0,-0.001,0,0
850,0,0,0.001,0,0.001,0.001,0,0,0,0,0,0,0,-0.001,0,0
