Wavelength nm.,MilliQ,CC3_16apr25_01_fridge1,CS1_16apr25_01_fridge1,CC3_16apr25_BOTR2,CC3_16apr25_BOT_fridge1,CC3_16apr25_01R2,CS1_16apr25_01R2
190,0.014,0.461,0.166,0.418,0.42,0.418,0.175
191,0.013,0.422,0.159,0.385,0.388,0.381,0.159
192,0.011,0.386,0.151,0.352,0.355,0.347,0.147
193,0.011,0.347,0.143,0.318,0.321,0.313,0.135
194,0.009,0.317,0.136,0.292,0.295,0.284,0.126
195,0.009,0.288,0.131,0.268,0.27,0.258,0.119
196,0.009,0.263,0.127,0.246,0.25,0.237,0.114
197,0.008,0.242,0.123,0.228,0.231,0.218,0.109
198,0.007,0.224,0.119,0.212,0.214,0.202,0.105
199,0.006,0.208,0.116,0.199,0.201,0.188,0.102
200,0.006,0.195,0.113,0.187,0.19,0.176,0.1
201,0.005,0.184,0.111,0.177,0.18,0.166,0.097
202,0.005,0.173,0.108,0.169,0.171,0.157,0.095
203,0.005,0.165,0.106,0.162,0.164,0.15,0.093
204,0.005,0.157,0.104,0.155,0.157,0.143,0.092
205,0.004,0.15,0.102,0.149,0.151,0.138,0.09
206,0.004,0.144,0.1,0.144,0.146,0.132,0.088
207,0.004,0.139,0.098,0.14,0.141,0.128,0.087
208,0.004,0.135,0.096,0.136,0.137,0.124,0.086
209,0.004,0.131,0.094,0.132,0.133,0.121,0.084
210,0.003,0.127,0.093,0.129,0.13,0.118,0.082
211,0.003,0.124,0.091,0.126,0.126,0.114,0.081
212,0.003,0.121,0.09,0.123,0.123,0.112,0.08
213,0.003,0.117,0.088,0.12,0.12,0.109,0.078
214,0.003,0.114,0.086,0.117,0.117,0.106,0.077
215,0.003,0.112,0.085,0.114,0.115,0.103,0.075
216,0.003,0.109,0.083,0.112,0.112,0.101,0.074
217,0.003,0.106,0.081,0.109,0.109,0.098,0.073
218,0.003,0.104,0.08,0.107,0.107,0.096,0.071
219,0.003,0.102,0.079,0.105,0.105,0.094,0.07
220,0.003,0.1,0.078,0.103,0.103,0.092,0.069
221,0.002,0.098,0.077,0.101,0.101,0.09,0.068
222,0.002,0.096,0.076,0.099,0.099,0.089,0.067
223,0.002,0.094,0.074,0.098,0.097,0.087,0.066
224,0.002,0.092,0.073,0.096,0.095,0.085,0.065
225,0.002,0.09,0.072,0.094,0.094,0.084,0.064
226,0.002,0.089,0.071,0.093,0.092,0.082,0.063
227,0.002,0.087,0.07,0.091,0.091,0.081,0.063
228,0.002,0.085,0.069,0.09,0.089,0.079,0.062
229,0.002,0.084,0.068,0.088,0.088,0.078,0.061
230,0.002,0.082,0.067,0.086,0.086,0.076,0.06
231,0.002,0.081,0.066,0.085,0.084,0.075,0.059
232,0.002,0.079,0.065,0.083,0.083,0.073,0.058
233,0.002,0.078,0.064,0.082,0.081,0.072,0.057
234,0.002,0.077,0.063,0.081,0.08,0.071,0.056
235,0.002,0.075,0.062,0.08,0.079,0.07,0.056
236,0.002,0.074,0.061,0.078,0.078,0.069,0.055
237,0.002,0.073,0.06,0.077,0.076,0.067,0.054
238,0.001,0.072,0.059,0.076,0.075,0.067,0.053
239,0.001,0.071,0.059,0.075,0.074,0.066,0.052
240,0.001,0.07,0.058,0.074,0.073,0.065,0.052
241,0.001,0.069,0.057,0.073,0.072,0.064,0.051
242,0.001,0.068,0.056,0.072,0.071,0.063,0.05
243,0.001,0.067,0.056,0.071,0.07,0.062,0.05
244,0.001,0.067,0.055,0.07,0.069,0.062,0.049
245,0.001,0.066,0.054,0.07,0.068,0.061,0.049
246,0.001,0.065,0.054,0.069,0.068,0.06,0.048
247,0.001,0.064,0.053,0.068,0.067,0.06,0.047
248,0.001,0.063,0.052,0.067,0.066,0.059,0.047
249,0.001,0.063,0.052,0.067,0.066,0.059,0.047
250,0.001,0.062,0.051,0.066,0.065,0.058,0.046
251,0.001,0.062,0.051,0.066,0.065,0.058,0.046
252,0.001,0.061,0.05,0.065,0.064,0.057,0.045
253,0.001,0.061,0.05,0.065,0.064,0.057,0.045
254,0.001,0.06,0.05,0.064,0.063,0.056,0.044
255,0.001,0.06,0.049,0.064,0.063,0.056,0.044
256,0.001,0.059,0.049,0.063,0.062,0.055,0.044
257,0.001,0.059,0.048,0.063,0.062,0.055,0.043
258,0.001,0.058,0.048,0.062,0.061,0.054,0.043
259,0.001,0.058,0.047,0.062,0.061,0.054,0.042
260,0.001,0.057,0.047,0.061,0.06,0.053,0.042
261,0.001,0.057,0.046,0.061,0.06,0.053,0.042
262,0.001,0.056,0.046,0.06,0.059,0.052,0.041
263,0.001,0.056,0.046,0.059,0.058,0.052,0.041
264,0.001,0.055,0.045,0.059,0.058,0.052,0.04
265,0.001,0.055,0.045,0.058,0.057,0.051,0.04
266,0.001,0.054,0.044,0.057,0.056,0.05,0.04
267,0.001,0.053,0.044,0.057,0.056,0.049,0.039
268,0.001,0.053,0.043,0.056,0.055,0.049,0.039
269,0.001,0.052,0.043,0.055,0.054,0.048,0.039
270,0.001,0.052,0.043,0.055,0.054,0.048,0.038
271,0.001,0.051,0.042,0.054,0.053,0.047,0.038
272,0.001,0.05,0.042,0.053,0.053,0.046,0.037
273,0.001,0.049,0.041,0.052,0.052,0.046,0.037
274,0.001,0.049,0.041,0.052,0.051,0.045,0.037
275,0.001,0.048,0.04,0.051,0.05,0.044,0.036
276,0.001,0.047,0.04,0.05,0.05,0.044,0.036
277,0.001,0.046,0.039,0.049,0.049,0.043,0.035
278,0.001,0.045,0.039,0.049,0.048,0.042,0.035
279,0.001,0.044,0.038,0.048,0.047,0.041,0.034
280,0.001,0.044,0.038,0.047,0.046,0.04,0.034
281,0.001,0.043,0.038,0.046,0.046,0.04,0.034
282,0.001,0.042,0.037,0.045,0.045,0.039,0.033
283,0.001,0.041,0.037,0.045,0.044,0.038,0.033
284,0.001,0.041,0.036,0.044,0.043,0.037,0.032
285,0.001,0.04,0.036,0.043,0.043,0.037,0.032
286,0.001,0.039,0.036,0.043,0.042,0.036,0.032
287,0.001,0.038,0.035,0.042,0.041,0.035,0.031
288,0.001,0.037,0.035,0.041,0.04,0.034,0.031
289,0.001,0.036,0.034,0.04,0.039,0.034,0.03
290,0.001,0.035,0.033,0.039,0.039,0.033,0.03
291,0.001,0.035,0.033,0.039,0.038,0.032,0.029
292,0.001,0.034,0.033,0.038,0.037,0.032,0.029
293,0.001,0.033,0.032,0.037,0.036,0.031,0.029
294,0.001,0.032,0.032,0.036,0.035,0.03,0.028
295,0.001,0.032,0.031,0.036,0.035,0.03,0.028
296,0.001,0.031,0.031,0.035,0.034,0.029,0.028
297,0.001,0.03,0.03,0.034,0.034,0.028,0.027
298,0.001,0.03,0.03,0.034,0.033,0.028,0.027
299,0.001,0.029,0.029,0.033,0.032,0.027,0.026
300,0.001,0.028,0.029,0.032,0.031,0.026,0.026
301,0.001,0.028,0.029,0.032,0.031,0.026,0.026
302,0.001,0.027,0.029,0.031,0.031,0.025,0.026
303,0.001,0.027,0.028,0.031,0.03,0.025,0.025
304,0.001,0.026,0.028,0.03,0.029,0.024,0.025
305,0.001,0.026,0.027,0.03,0.029,0.024,0.025
306,0.001,0.025,0.027,0.029,0.028,0.023,0.024
307,0.001,0.025,0.027,0.028,0.028,0.023,0.024
308,0,0.024,0.026,0.028,0.027,0.022,0.024
309,0.001,0.023,0.026,0.028,0.027,0.022,0.023
310,0.001,0.023,0.025,0.027,0.026,0.022,0.023
311,0,0.023,0.025,0.027,0.026,0.021,0.023
312,0.001,0.022,0.025,0.027,0.026,0.021,0.023
313,0,0.022,0.025,0.026,0.025,0.021,0.022
314,0.001,0.021,0.024,0.025,0.025,0.02,0.022
315,0.001,0.021,0.024,0.025,0.024,0.02,0.022
316,0.001,0.02,0.023,0.024,0.024,0.019,0.022
317,0.001,0.02,0.023,0.024,0.023,0.019,0.021
318,0,0.02,0.023,0.024,0.023,0.019,0.021
319,0,0.019,0.023,0.023,0.022,0.018,0.021
320,0.001,0.019,0.022,0.023,0.022,0.018,0.021
321,0.001,0.019,0.022,0.023,0.022,0.018,0.02
322,0,0.018,0.022,0.022,0.021,0.017,0.02
323,0,0.018,0.022,0.022,0.021,0.017,0.02
324,0,0.018,0.022,0.022,0.021,0.017,0.02
325,0,0.018,0.022,0.022,0.021,0.016,0.02
326,0.001,0.017,0.021,0.021,0.02,0.016,0.019
327,0,0.017,0.021,0.021,0.02,0.016,0.019
328,0,0.016,0.02,0.02,0.019,0.016,0.019
329,0,0.016,0.02,0.02,0.019,0.015,0.019
330,0.001,0.016,0.02,0.02,0.019,0.015,0.019
331,0.001,0.016,0.02,0.02,0.019,0.015,0.018
332,0,0.015,0.019,0.019,0.018,0.015,0.018
333,0,0.015,0.019,0.019,0.018,0.014,0.018
334,0.001,0.015,0.019,0.019,0.018,0.014,0.018
335,0,0.015,0.019,0.018,0.018,0.014,0.018
336,0,0.014,0.018,0.018,0.017,0.013,0.017
337,0.001,0.014,0.018,0.017,0.017,0.013,0.017
338,0,0.014,0.018,0.017,0.016,0.013,0.017
339,0.001,0.014,0.018,0.018,0.016,0.013,0.017
340,0.002,0.015,0.019,0.019,0.017,0.014,0.018
341,0.001,0.014,0.018,0.017,0.016,0.013,0.016
342,0,0.012,0.017,0.016,0.015,0.012,0.016
343,0.001,0.012,0.017,0.016,0.015,0.012,0.015
344,0.001,0.013,0.016,0.016,0.015,0.012,0.015
345,0,0.012,0.016,0.016,0.014,0.011,0.015
346,0,0.012,0.016,0.015,0.014,0.011,0.015
347,0,0.011,0.016,0.015,0.014,0.011,0.014
348,0,0.011,0.016,0.015,0.014,0.011,0.014
349,0,0.011,0.016,0.015,0.014,0.011,0.014
350,0,0.011,0.015,0.014,0.013,0.011,0.014
351,0.001,0.011,0.015,0.014,0.013,0.01,0.014
352,0,0.011,0.015,0.014,0.013,0.01,0.014
353,0,0.01,0.015,0.014,0.013,0.01,0.014
354,0,0.01,0.014,0.013,0.012,0.01,0.013
355,0,0.01,0.014,0.014,0.012,0.01,0.013
356,0.001,0.01,0.014,0.014,0.012,0.009,0.013
357,0,0.01,0.014,0.013,0.012,0.009,0.013
358,0.001,0.01,0.014,0.013,0.012,0.009,0.013
359,0,0.009,0.014,0.013,0.011,0.009,0.013
360,0,0.009,0.013,0.012,0.011,0.009,0.012
361,0,0.009,0.013,0.012,0.011,0.009,0.012
362,0,0.009,0.013,0.012,0.011,0.009,0.012
363,0.001,0.009,0.013,0.012,0.011,0.008,0.012
364,0,0.008,0.012,0.012,0.01,0.008,0.012
365,0,0.008,0.012,0.012,0.01,0.008,0.012
366,0.001,0.008,0.012,0.012,0.01,0.008,0.012
367,0,0.008,0.012,0.011,0.01,0.008,0.011
368,0.001,0.008,0.012,0.011,0.01,0.008,0.011
369,0,0.008,0.012,0.011,0.01,0.007,0.011
370,0,0.008,0.011,0.011,0.009,0.007,0.011
371,0,0.008,0.011,0.011,0.009,0.007,0.011
372,0,0.007,0.011,0.01,0.009,0.007,0.011
373,0.001,0.007,0.011,0.01,0.009,0.007,0.011
374,0,0.007,0.011,0.01,0.009,0.007,0.011
375,0,0.007,0.011,0.01,0.009,0.007,0.01
376,0,0.007,0.01,0.01,0.009,0.007,0.01
377,0,0.007,0.01,0.01,0.008,0.007,0.01
378,0,0.007,0.01,0.01,0.009,0.007,0.01
379,0,0.007,0.01,0.009,0.008,0.006,0.01
380,0,0.007,0.01,0.009,0.008,0.006,0.01
381,0,0.006,0.01,0.009,0.008,0.006,0.01
382,0,0.006,0.01,0.009,0.008,0.006,0.01
383,0,0.006,0.01,0.009,0.008,0.006,0.01
384,0,0.006,0.01,0.009,0.008,0.006,0.01
385,0,0.006,0.009,0.009,0.008,0.006,0.009
386,0,0.006,0.009,0.009,0.007,0.006,0.009
387,0,0.006,0.009,0.008,0.007,0.005,0.009
388,0,0.006,0.009,0.008,0.007,0.005,0.009
389,0,0.005,0.009,0.008,0.007,0.005,0.009
390,0,0.005,0.009,0.008,0.007,0.005,0.009
391,0,0.005,0.009,0.008,0.007,0.005,0.009
392,0,0.005,0.008,0.008,0.007,0.005,0.008
393,0,0.005,0.008,0.008,0.006,0.005,0.008
394,0,0.005,0.008,0.008,0.006,0.005,0.008
395,0,0.005,0.008,0.008,0.006,0.005,0.008
396,0,0.005,0.008,0.007,0.006,0.004,0.008
397,0,0.005,0.008,0.007,0.006,0.004,0.008
398,0,0.004,0.008,0.007,0.006,0.004,0.008
399,0,0.004,0.007,0.007,0.006,0.004,0.008
400,0,0.004,0.007,0.007,0.006,0.004,0.008
401,0,0.004,0.007,0.007,0.006,0.004,0.008
402,0,0.004,0.007,0.007,0.006,0.004,0.008
403,0,0.004,0.007,0.007,0.006,0.004,0.008
404,0,0.004,0.007,0.007,0.005,0.004,0.008
405,0,0.004,0.007,0.006,0.005,0.004,0.007
406,0,0.004,0.007,0.006,0.005,0.004,0.007
407,0,0.004,0.007,0.006,0.005,0.004,0.007
408,0,0.004,0.007,0.006,0.005,0.004,0.007
409,0,0.004,0.007,0.006,0.005,0.004,0.007
410,0,0.004,0.007,0.006,0.005,0.004,0.007
411,0,0.004,0.007,0.006,0.005,0.004,0.007
412,0,0.004,0.006,0.006,0.005,0.003,0.007
413,0,0.004,0.006,0.006,0.005,0.004,0.007
414,0,0.004,0.006,0.006,0.005,0.004,0.007
415,0,0.004,0.006,0.006,0.005,0.003,0.007
416,0,0.004,0.006,0.006,0.005,0.004,0.007
417,0,0.003,0.006,0.006,0.005,0.003,0.007
418,0,0.003,0.006,0.006,0.005,0.003,0.007
419,0,0.003,0.006,0.006,0.004,0.003,0.007
420,0,0.003,0.006,0.005,0.004,0.003,0.006
421,0,0.003,0.006,0.005,0.004,0.003,0.006
422,0,0.003,0.006,0.005,0.004,0.003,0.006
423,0,0.003,0.006,0.005,0.004,0.003,0.006
424,0,0.003,0.006,0.005,0.004,0.003,0.006
425,0,0.003,0.006,0.005,0.004,0.003,0.006
426,0,0.003,0.005,0.005,0.004,0.003,0.006
427,0,0.003,0.005,0.005,0.004,0.003,0.006
428,0,0.003,0.005,0.005,0.004,0.003,0.006
429,0,0.003,0.005,0.005,0.004,0.003,0.006
430,0,0.003,0.005,0.005,0.004,0.003,0.006
431,0,0.003,0.005,0.005,0.004,0.003,0.006
432,0,0.003,0.005,0.005,0.004,0.002,0.006
433,0,0.002,0.005,0.005,0.003,0.002,0.006
434,0,0.002,0.005,0.004,0.003,0.002,0.006
435,0,0.002,0.005,0.004,0.003,0.002,0.006
436,0,0.002,0.005,0.004,0.003,0.002,0.006
437,0,0.002,0.005,0.004,0.003,0.002,0.006
438,0,0.002,0.004,0.004,0.003,0.002,0.006
439,0,0.002,0.004,0.004,0.003,0.002,0.005
440,0,0.002,0.004,0.004,0.003,0.002,0.005
441,0,0.002,0.004,0.004,0.003,0.002,0.005
442,0,0.002,0.004,0.004,0.003,0.002,0.005
443,0,0.002,0.004,0.004,0.003,0.002,0.005
444,0,0.002,0.004,0.004,0.003,0.002,0.005
445,0,0.002,0.004,0.004,0.003,0.002,0.005
446,0,0.002,0.004,0.004,0.003,0.002,0.005
447,0,0.002,0.004,0.004,0.003,0.002,0.005
448,0,0.002,0.004,0.004,0.003,0.002,0.005
449,0,0.002,0.004,0.004,0.003,0.002,0.005
450,0,0.002,0.004,0.004,0.003,0.002,0.005
451,0,0.002,0.004,0.004,0.003,0.002,0.005
452,0,0.002,0.004,0.004,0.003,0.002,0.005
453,0,0.002,0.004,0.003,0.003,0.002,0.005
454,0,0.002,0.004,0.003,0.003,0.002,0.005
455,0,0.002,0.004,0.003,0.003,0.002,0.005
456,0,0.002,0.004,0.003,0.003,0.002,0.005
457,0,0.002,0.004,0.003,0.003,0.002,0.005
458,0,0.002,0.004,0.003,0.003,0.002,0.005
459,0,0.002,0.004,0.003,0.002,0.002,0.005
460,0,0.002,0.004,0.003,0.002,0.002,0.005
461,0,0.002,0.004,0.003,0.002,0.002,0.005
462,0,0.002,0.004,0.003,0.002,0.002,0.005
463,0,0.001,0.003,0.003,0.002,0.001,0.005
464,0,0.001,0.003,0.003,0.002,0.001,0.004
465,0,0.001,0.003,0.003,0.002,0.002,0.004
466,0,0.001,0.003,0.003,0.002,0.002,0.004
467,0,0.001,0.003,0.003,0.002,0.002,0.004
468,0,0.001,0.003,0.003,0.002,0.001,0.004
469,0,0.001,0.003,0.003,0.002,0.001,0.004
470,0,0.001,0.003,0.003,0.002,0.001,0.004
471,0,0.001,0.003,0.003,0.002,0.001,0.004
472,0,0.001,0.003,0.003,0.002,0.001,0.004
473,0,0.001,0.003,0.003,0.002,0.001,0.004
474,0,0.001,0.003,0.003,0.002,0.001,0.004
475,0,0.001,0.003,0.003,0.002,0.001,0.004
476,0,0.001,0.003,0.003,0.002,0.001,0.004
477,0,0.001,0.003,0.003,0.002,0.001,0.004
478,0,0.001,0.003,0.003,0.002,0.001,0.004
479,0,0.001,0.003,0.003,0.002,0.001,0.004
480,0,0.001,0.003,0.003,0.002,0.001,0.004
481,0,0.001,0.003,0.003,0.002,0.001,0.004
482,0,0.001,0.003,0.003,0.002,0.001,0.004
483,0,0.001,0.003,0.003,0.002,0.001,0.004
484,0,0.001,0.003,0.003,0.002,0.001,0.004
485,0,0.001,0.003,0.003,0.002,0.001,0.004
486,0,0.001,0.002,0.003,0.002,0.001,0.004
487,0,0.001,0.002,0.003,0.002,0.001,0.004
488,0,0.001,0.002,0.002,0.001,0.001,0.004
489,0,0.001,0.002,0.003,0.001,0.001,0.004
490,0,0.001,0.002,0.003,0.002,0.001,0.004
491,0,0.001,0.002,0.002,0.001,0.001,0.004
492,0,0.001,0.003,0.002,0.002,0.001,0.004
493,0,0.001,0.002,0.002,0.001,0.001,0.004
494,0,0.001,0.002,0.002,0.001,0.001,0.004
495,0,0.001,0.002,0.002,0.001,0.001,0.004
496,0,0.001,0.002,0.002,0.001,0.001,0.004
497,0,0.001,0.002,0.002,0.001,0.001,0.004
498,0,0.001,0.002,0.002,0.001,0.001,0.004
499,0,0.001,0.002,0.002,0.001,0.001,0.004
500,0,0.001,0.002,0.002,0.001,0.001,0.004
501,0,0.001,0.002,0.002,0.001,0.001,0.004
502,0,0.001,0.002,0.002,0.001,0.001,0.004
503,0,0.001,0.002,0.002,0.001,0.001,0.004
504,0,0.001,0.002,0.002,0.001,0.001,0.004
505,0,0.001,0.002,0.002,0.001,0.001,0.004
506,0,0.001,0.002,0.002,0.001,0.001,0.004
507,0,0.001,0.002,0.002,0.001,0.001,0.004
508,0,0.001,0.002,0.002,0.001,0.001,0.004
509,0,0.001,0.002,0.002,0.001,0.001,0.004
510,0,0.001,0.002,0.002,0.001,0.001,0.004
511,0,0.001,0.002,0.002,0.001,0.001,0.004
512,0,0.001,0.002,0.002,0.001,0.001,0.004
513,0,0.001,0.002,0.002,0.001,0.001,0.003
514,0,0.001,0.002,0.002,0.001,0.001,0.003
515,0,0.001,0.002,0.002,0.001,0.001,0.003
516,0,0.001,0.002,0.002,0.001,0.001,0.003
517,0,0.001,0.002,0.002,0.001,0.001,0.003
518,0,0.001,0.002,0.002,0.001,0.001,0.003
519,0,0.001,0.002,0.002,0.001,0.001,0.003
520,0,0.001,0.002,0.002,0.001,0.001,0.003
521,0,0.001,0.002,0.002,0.001,0.001,0.003
522,0,0.001,0.002,0.002,0.001,0.001,0.003
523,0,0.001,0.002,0.002,0.001,0.001,0.003
524,0,0.001,0.002,0.002,0.001,0.001,0.003
525,0,0.001,0.002,0.002,0.001,0.001,0.003
526,0,0.001,0.002,0.002,0.001,0.001,0.003
527,0,0.001,0.002,0.002,0.001,0.001,0.003
528,0,0,0.002,0.002,0.001,0.001,0.003
529,0,0,0.002,0.002,0.001,0.001,0.003
530,0,0,0.002,0.002,0.001,0.001,0.003
531,0,0,0.002,0.002,0.001,0.001,0.003
532,0,0,0.002,0.002,0.001,0.001,0.003
533,0,0,0.002,0.002,0.001,0.001,0.003
534,0,0,0.002,0.002,0.001,0.001,0.003
535,0,0.001,0.002,0.002,0.001,0.001,0.003
536,0.001,0.001,0.003,0.003,0.002,0.002,0.004
537,0,0,0.002,0.002,0.001,0.001,0.003
538,0,0,0.001,0.002,0.001,0,0.003
539,0,0,0.001,0.002,0.001,0,0.003
540,0,0,0.001,0.002,0.001,0,0.003
541,0,0,0.001,0.002,0.001,0,0.003
542,0,0,0.001,0.002,0.001,0,0.003
543,0,0,0.001,0.002,0.001,0,0.003
544,0,0,0.001,0.002,0.001,0,0.003
545,0,0,0.001,0.002,0.001,0,0.003
546,0,0,0.001,0.002,0.001,0,0.003
547,0,0,0.001,0.002,0.001,0.001,0.003
548,0,0,0.001,0.002,0.001,0,0.003
549,0,0,0.001,0.002,0.001,0,0.003
550,0,0,0.001,0.002,0.001,0,0.003
551,0,0,0.001,0.002,0.001,0,0.003
552,0,0,0.001,0.002,0.001,0,0.003
553,0,0,0.001,0.002,0.001,0,0.003
554,0,0,0.001,0.002,0.001,0,0.003
555,0,0,0.001,0.002,0.001,0,0.003
556,0,0,0.001,0.002,0.001,0,0.003
557,0,0,0.001,0.002,0.001,0,0.003
558,0,0,0.001,0.002,0.001,0,0.003
559,0,0,0.001,0.002,0.001,0.001,0.003
560,0,0,0.001,0.002,0.001,0,0.003
561,0,0,0.001,0.002,0.001,0.001,0.003
562,0,0,0.001,0.001,0.001,0,0.003
563,0,0,0.001,0.001,0.001,0,0.003
564,0,0,0.001,0.001,0.001,0,0.003
565,0,0,0.001,0.001,0.001,0,0.003
566,0,0,0.001,0.002,0.001,0.001,0.003
567,0,0,0.001,0.002,0.001,0.001,0.003
568,0,0,0.001,0.002,0.001,0,0.003
569,0,0,0.001,0.002,0.001,0.001,0.003
570,0,0,0.001,0.002,0.001,0,0.003
571,0,0,0.001,0.001,0.001,0,0.003
572,0,0,0.001,0.001,0.001,0,0.003
573,0,0,0.001,0.001,0.001,0,0.003
574,0,0,0.001,0.001,0.001,0.001,0.003
575,0,0,0.001,0.002,0.001,0,0.003
576,0,0,0.001,0.002,0.001,0,0.003
577,0,0,0.001,0.001,0.001,0.001,0.003
578,0,0,0.001,0.001,0.001,0,0.003
579,0,0,0.001,0.001,0.001,0.001,0.003
580,0,0,0.001,0.001,0.001,0,0.003
581,0,0,0.001,0.001,0.001,0.001,0.003
582,0,0,0.001,0.001,0.001,0.001,0.003
583,0,0,0.001,0.002,0.001,0.001,0.003
584,0,0,0.001,0.002,0.001,0.001,0.003
585,0,0,0.001,0.002,0.001,0.001,0.003
586,0,0,0.001,0.001,0.001,0,0.003
587,0,0,0.001,0.001,0.001,0,0.003
588,0,0,0.001,0.001,0.001,0,0.003
589,0,0,0.001,0.001,0.001,0,0.003
590,0,0,0.001,0.001,0,0,0.003
591,0,0,0.001,0.001,0.001,0,0.003
592,0,0,0.001,0.001,0.001,0,0.003
593,0,0,0.001,0.001,0,0,0.003
594,0,0,0.001,0.001,0,0,0.002
595,0,0,0.001,0.001,0,0,0.003
596,0,0,0.001,0.001,0,0,0.003
597,0,0,0.001,0.001,0,0,0.003
598,0,0,0.001,0.001,0,0,0.002
599,0,0,0.001,0.001,0,0,0.002
600,0,0,0.001,0.001,0,0,0.002
601,0,0,0.001,0.001,0,0,0.002
602,0,0,0.001,0.001,0,0,0.002
603,0,0,0.001,0.001,0,0,0.002
604,0,0,0.001,0.001,0,0,0.002
605,0,0,0.001,0.001,0,0,0.002
606,0,0,0.001,0.001,0,0,0.002
607,0,0,0.001,0.001,0,0,0.002
608,0,0,0.001,0.001,0,0,0.002
609,0,0,0.001,0.001,0,0,0.002
610,0,0,0.001,0.001,0,0,0.002
611,0,0,0.001,0.001,0,0,0.002
612,0,0,0.001,0.001,0,0,0.002
613,0,0,0.001,0.001,0,0,0.002
614,0,0,0.001,0.001,0,0,0.002
615,0,0,0.001,0.001,0,0,0.002
616,0,0,0.001,0.001,0,0,0.002
617,0,0,0.001,0.001,0,0,0.002
618,0,0,0.001,0.001,0,0,0.002
619,0,0,0.001,0.001,0,0,0.002
620,0,0,0.001,0.001,0,0,0.002
621,0,0,0.001,0.001,0,0,0.002
622,0,0,0.001,0.001,0,0,0.002
623,0,0,0.001,0.001,0,0,0.002
624,0,0,0.001,0.001,0,0,0.002
625,0,0,0.001,0.001,0,0,0.002
626,0,0,0.001,0.001,0,0,0.002
627,0,0,0.001,0.001,0,0,0.002
628,0,0,0.001,0.001,0,0,0.002
629,0,0,0.001,0.001,0,0,0.002
630,0,0,0.001,0.001,0,0,0.002
631,0,0,0.001,0.001,0,0,0.002
632,0,0,0.001,0.001,0,0,0.002
633,0,0,0.001,0.001,0,0,0.002
634,0,0,0.001,0.001,0,0,0.002
635,0,0,0.001,0.001,0,0,0.002
636,0,0,0.001,0.001,0,0,0.002
637,0,0,0.001,0.001,0,0,0.002
638,0,0,0,0.001,0,0,0.002
639,0,0,0,0.001,0,0,0.002
640,0,0,0.001,0.001,0,0,0.002
641,0,0,0.001,0.001,0,0,0.002
642,0,0,0.001,0.001,0,0,0.002
643,0,0,0.001,0.001,0,0,0.002
644,0,0,0.001,0.001,0,0,0.002
645,0,0,0.001,0.001,0,0,0.002
646,0,0,0.001,0.001,0,0,0.002
647,0,0,0.001,0.001,0,0,0.002
648,0,0,0.001,0.001,0,0,0.002
649,0,0,0.001,0.001,0,0,0.002
650,0,0,0.001,0.001,0,0,0.002
651,0,0,0.001,0.001,0,0,0.002
652,0,0,0.001,0.001,0,0,0.002
653,0,0,0.001,0.001,0,0,0.002
654,0,0,0.001,0.001,0,0,0.002
655,0,0,0.001,0.001,0,0,0.002
656,0,0,0.001,0.001,0,0,0.002
657,0,0,0.001,0.001,0,0,0.002
658,0,0,0.001,0.001,0,0,0.002
659,0,0,0.001,0.001,0,0,0.002
660,0,0,0.001,0.001,0,0,0.002
661,0,0,0.001,0.001,0,0,0.002
662,0,0,0.001,0.001,0,0,0.002
663,0,0,0.001,0.001,0,0,0.002
664,0,0,0.001,0.001,0,0,0.002
665,0,0,0.001,0.001,0,0,0.002
666,0,0,0.001,0.001,0,0,0.002
667,0,0,0.001,0.001,0,0,0.002
668,0,0,0.001,0.001,0,0,0.002
669,0,0,0.001,0.001,0,0,0.002
670,0,0,0.001,0.001,0,0,0.002
671,0,0,0.001,0.001,0,0,0.002
672,0,0,0.001,0.001,0,0,0.002
673,0,0,0.001,0.001,0,0,0.002
674,0,0,0.001,0.001,0,0,0.002
675,0,0,0.001,0.001,0,0,0.002
676,0,0,0.001,0.001,0,0,0.002
677,0,0,0.001,0.001,0,0,0.002
678,0,0,0.001,0.001,0,0,0.002
679,0,0,0.001,0.001,0,0,0.002
680,0,0,0.001,0.001,0,0,0.002
681,0,0,0.001,0.001,0,0,0.002
682,0,0,0.001,0.001,0,0,0.002
683,0,0,0.001,0.001,0,0,0.002
684,0,0,0.001,0.001,0,0,0.002
685,0,0,0.001,0.001,0,0,0.002
686,0,0,0.001,0.001,0,0,0.002
687,0,0,0.001,0.001,0,0,0.002
688,0,0,0.001,0.001,0,0,0.002
689,0,0,0.001,0.001,0,0,0.002
690,0,0,0.001,0.001,0,0,0.002
691,0,0,0.001,0.001,0,0,0.002
692,0,0,0.001,0.001,0,0,0.002
693,0,0,0.001,0.001,0,0,0.002
694,0,0,0.001,0.001,0,0,0.002
695,0,0,0.001,0.001,0,0,0.002
696,0,0,0.001,0.001,0,0,0.002
697,0,0,0.001,0.001,0,0,0.002
698,0,0,0,0.001,0,0,0.002
699,0,0,0.001,0.001,0,0,0.002
700,0,0,0.001,0.001,0,0,0.002
701,0,0,0.001,0.001,0,0,0.002
702,0,0,0.001,0.001,0,0,0.002
703,0,0,0.001,0.001,0,0,0.002
704,0,0,0,0.001,0,0,0.002
705,0,0,0,0.001,0,0,0.002
706,0,0,0.001,0.001,0,0,0.002
707,0,0,0,0.001,0,0,0.002
708,0,0,0,0.001,0,0,0.002
709,0,0,0,0.001,0,0,0.002
710,0,0,0,0.001,0,0,0.002
711,0,0,0,0.001,0,0,0.002
712,0,0,0,0.001,0,0,0.002
713,0,0,0,0.001,0,0,0.002
714,0,0,0,0.001,0,0,0.002
715,0,0,0,0.001,0,0,0.002
716,0,0,0,0.001,0,0,0.002
717,0,0,0,0.001,0,0,0.002
718,0,0,0,0.001,0,0,0.002
719,0,0,0,0.001,0,0,0.002
720,0,0,0,0.001,0,0,0.002
721,0,0,0,0.001,0,0,0.002
722,0,0,0,0.001,0,0,0.002
723,0,0,0,0.001,0,0,0.002
724,0,0,0,0.001,0,0,0.002
725,0,0,0,0.001,0,0,0.002
726,0,0,0,0.001,0,0,0.002
727,0,0,0,0.001,0,0,0.002
728,0,0,0,0.001,0,0,0.002
729,0,0,0,0.001,0,0,0.002
730,0,0,0,0.001,0,0,0.002
731,0,0,0,0.001,0,0,0.002
732,0,0,0,0.001,0,0,0.002
733,0,0,0,0.001,0,0,0.002
734,0,0,0,0.001,0,0,0.002
735,0,0,0,0.001,0,0,0.002
736,0,0,0,0.001,0,0,0.002
737,0,0,0,0.001,0,0,0.002
738,0,0,0,0,0,0,0.002
739,0,0,0,0.001,0,0,0.002
740,0,0,0,0.001,0,0,0.002
741,0,0,0,0.001,0,0,0.002
742,0,0,0,0.001,0,0,0.002
743,0,0,0,0.001,0,0,0.002
744,0,0,0,0.001,0,0,0.002
745,0,0,0,0.001,0,0,0.002
746,0,0,0,0.001,0,0,0.002
747,0,0,0,0.001,0,0,0.002
748,0,0,0,0.001,0,0,0.002
749,0,0,0,0.001,0,0,0.002
750,0,0,0,0.001,0,0,0.002
751,0,0,0,0.001,0,0,0.002
752,0,0,0,0.001,0,0,0.002
753,0,0,0,0.001,0,0,0.002
754,0,0,0,0.001,0,0,0.002
755,0,0,0,0.001,0,0,0.002
756,0,0,0,0.001,0,0,0.002
757,0,0,0,0.001,0,0,0.002
758,0,0,0,0.001,0,0,0.002
759,0,0,0.001,0.001,0,0,0.002
760,0.001,0.001,0.002,0.002,0.001,0.001,0.003
761,0,0,0.001,0.001,0,0,0.002
762,0,0,0,0.001,0,0,0.002
763,0,0,0,0.001,0,0,0.002
764,0,0,0,0.001,0,0,0.002
765,0,0,0,0.001,0,0,0.002
766,0,0,0,0.001,0,0,0.002
767,0,0,0,0.001,0,0,0.002
768,0,0,0,0.001,0,0,0.002
769,0,0,0,0.001,0,0,0.002
770,0,0,0,0.001,0,0,0.002
771,0,0,0,0.001,0,0,0.002
772,0,0,0,0.001,0,0,0.002
773,0,0,0,0.001,0,0,0.002
774,0,0,0,0.001,0,0,0.002
775,0,0,0,0.001,0,0,0.002
776,0,0,0,0.001,0,0,0.002
777,0,0,0,0.001,0,0,0.002
778,0,0,0,0.001,0,0,0.002
779,0,0,0,0.001,0,0,0.002
780,0,0,0,0.001,0,0,0.002
781,0,0,0,0.001,0,0,0.002
782,0,0,0,0.001,0,0,0.002
783,0,0,0,0.001,0,0,0.002
784,0,0,0,0.001,0,0,0.002
785,0,0,0,0.001,0,0,0.002
786,0,0,0,0.001,0,0,0.002
787,0,0,0,0.001,0,0,0.002
788,0,0,0,0.001,0,0,0.002
789,0,0,0,0.001,0,0,0.002
790,0,0,0,0.001,0,0,0.002
791,0,0,0,0.001,0,0,0.002
792,0,0,0,0.001,0,0,0.002
793,0,0,0,0.001,0,0,0.002
794,0,0,0,0.001,0,0,0.002
795,0,0,0,0.001,0,0,0.002
796,0,0,0,0.001,0,0,0.002
797,0,0,0,0.001,0,0,0.002
798,0,0,0,0.001,0,0,0.002
799,0,0,0,0.001,0,0,0.002
800,0,0,0,0.001,0,0,0.002
801,0,0,0,0.001,0,0,0.002
802,0,0,0,0.001,0,0,0.002
803,0,0,0,0.001,0,0,0.002
804,0,0,0,0.001,0,0,0.002
805,0,0,0,0.001,0,0,0.002
806,0,0,0,0.001,0,0,0.002
807,0,0,0,0.001,0,0,0.002
808,0,0,0,0.001,0,0,0.002
809,0,0,0,0.001,0,0,0.002
810,0,0,0,0.001,0,0,0.002
811,0,0,0,0.001,0,0,0.002
812,0,0,0,0.001,0,0,0.002
813,0,0,0,0.001,0,0,0.002
814,0,0,0,0.001,0,0,0.002
815,0,0,0,0.001,0,0,0.002
816,0,0,0,0.001,0,0,0.002
817,0,0,0,0.001,0,0,0.002
818,0,0,0,0.001,0,0,0.002
819,0,0,0,0.001,0,0,0.002
820,0,0,0,0.001,0,0,0.002
821,0,0,0,0.001,0,0,0.002
822,0,0,0,0.001,0,0,0.002
823,0,0,0,0.001,0,0,0.002
824,0,0,0,0.001,0,0,0.002
825,0,0,0,0.001,0,0,0.002
826,0,0,0,0.001,0,0,0.002
827,0,0,0,0.001,0,0,0.002
828,0,0,0,0.001,0,0,0.002
829,0,0,0,0.001,0,0,0.002
830,0,0,0,0.001,0,0,0.001
831,0,0,0,0.001,0,0,0.001
832,0,0,0,0.001,0,0,0.002
833,0,0,0,0.001,0,0,0.002
834,0,0,0,0.001,0,0,0.002
835,0,0,0,0.001,0,0,0.001
836,0,0,0,0.001,0,0,0.001
837,0,0,0,0.001,0,0,0.001
838,0,0,0,0.001,0,0,0.001
839,0,0,0,0.001,0,0,0.001
840,0,0,0,0.001,0,0,0.002
841,0,0,0,0.001,0,0,0.001
842,0,0,0,0.001,0,0,0.001
843,0,0,0,0.001,0,0,0.001
844,0,0,0,0.001,0,0,0.001
845,0,0,0,0.001,0,0,0.001
846,0,0,0,0.001,0,0,0.001
847,0,0,0,0.001,0,0,0.001
848,0,0,0,0.001,0,0,0.002
849,0,0,0,0.001,0,0,0.002
850,0,0,0,0.001,0,0,0.001
