Wavelength nm.	RawData ...	RawData ...	RawData ...	RawData ...	RawData ...	RawData ...	RawData ...	RawData ...
190.00	0.019	0.536	0.375	0.471	0.317	0.399	0.311	0.426
191.00	0.015	0.502	0.362	0.434	0.303	0.365	0.298	0.410
192.00	0.013	0.464	0.348	0.399	0.291	0.334	0.287	0.397
193.00	0.012	0.426	0.335	0.361	0.276	0.302	0.277	0.384
194.00	0.010	0.396	0.325	0.331	0.264	0.274	0.268	0.372
195.00	0.010	0.368	0.316	0.304	0.252	0.248	0.260	0.360
196.00	0.009	0.344	0.309	0.281	0.242	0.228	0.253	0.349
197.00	0.008	0.322	0.301	0.261	0.233	0.209	0.248	0.339
198.00	0.008	0.303	0.296	0.244	0.225	0.193	0.242	0.329
199.00	0.008	0.287	0.291	0.229	0.217	0.179	0.237	0.321
200.00	0.008	0.274	0.288	0.217	0.211	0.169	0.233	0.313
201.00	0.007	0.260	0.283	0.205	0.205	0.158	0.228	0.305
202.00	0.007	0.249	0.279	0.194	0.199	0.149	0.224	0.297
203.00	0.007	0.240	0.275	0.186	0.194	0.141	0.220	0.291
204.00	0.007	0.231	0.271	0.178	0.190	0.134	0.216	0.283
205.00	0.006	0.222	0.267	0.170	0.185	0.128	0.211	0.276
206.00	0.006	0.215	0.262	0.164	0.180	0.123	0.207	0.269
207.00	0.006	0.208	0.258	0.159	0.176	0.119	0.203	0.262
208.00	0.006	0.202	0.252	0.154	0.171	0.115	0.198	0.255
209.00	0.005	0.195	0.247	0.149	0.166	0.111	0.193	0.248
210.00	0.005	0.188	0.241	0.144	0.162	0.107	0.188	0.240
211.00	0.005	0.182	0.236	0.139	0.157	0.104	0.182	0.232
212.00	0.005	0.176	0.230	0.135	0.152	0.101	0.176	0.224
213.00	0.005	0.169	0.223	0.131	0.147	0.098	0.170	0.215
214.00	0.004	0.163	0.217	0.127	0.142	0.095	0.164	0.206
215.00	0.004	0.156	0.212	0.123	0.137	0.093	0.158	0.198
216.00	0.004	0.150	0.206	0.119	0.131	0.090	0.151	0.188
217.00	0.004	0.143	0.201	0.115	0.127	0.088	0.145	0.180
218.00	0.004	0.138	0.196	0.112	0.122	0.086	0.140	0.172
219.00	0.004	0.133	0.192	0.109	0.118	0.084	0.134	0.165
220.00	0.004	0.127	0.188	0.106	0.113	0.082	0.129	0.157
221.00	0.004	0.122	0.183	0.103	0.109	0.081	0.124	0.151
222.00	0.004	0.117	0.180	0.101	0.105	0.079	0.120	0.144
223.00	0.004	0.113	0.176	0.098	0.101	0.077	0.115	0.138
224.00	0.004	0.109	0.172	0.096	0.098	0.076	0.111	0.131
225.00	0.004	0.105	0.169	0.094	0.095	0.074	0.107	0.126
226.00	0.004	0.101	0.166	0.091	0.092	0.073	0.103	0.121
227.00	0.004	0.097	0.163	0.089	0.089	0.071	0.099	0.116
228.00	0.003	0.094	0.160	0.087	0.086	0.070	0.096	0.112
229.00	0.003	0.091	0.157	0.085	0.083	0.069	0.093	0.108
230.00	0.003	0.088	0.154	0.083	0.081	0.067	0.091	0.104
231.00	0.003	0.085	0.151	0.081	0.079	0.066	0.088	0.101
232.00	0.003	0.083	0.149	0.080	0.077	0.065	0.086	0.098
233.00	0.003	0.080	0.146	0.078	0.075	0.063	0.084	0.096
234.00	0.003	0.079	0.144	0.077	0.074	0.063	0.082	0.093
235.00	0.003	0.076	0.141	0.075	0.072	0.061	0.080	0.091
236.00	0.003	0.075	0.139	0.074	0.071	0.060	0.079	0.089
237.00	0.003	0.073	0.137	0.073	0.069	0.059	0.077	0.087
238.00	0.003	0.072	0.135	0.071	0.068	0.058	0.076	0.085
239.00	0.003	0.070	0.133	0.070	0.067	0.058	0.074	0.083
240.00	0.003	0.069	0.131	0.069	0.066	0.057	0.073	0.082
241.00	0.003	0.068	0.129	0.068	0.065	0.056	0.072	0.081
242.00	0.003	0.067	0.127	0.067	0.064	0.056	0.071	0.080
243.00	0.002	0.066	0.125	0.067	0.063	0.055	0.070	0.079
244.00	0.002	0.065	0.123	0.066	0.062	0.054	0.069	0.078
245.00	0.002	0.064	0.122	0.065	0.061	0.054	0.068	0.077
246.00	0.002	0.063	0.120	0.064	0.061	0.053	0.067	0.076
247.00	0.002	0.063	0.118	0.064	0.060	0.053	0.067	0.075
248.00	0.002	0.062	0.117	0.063	0.059	0.052	0.066	0.074
249.00	0.002	0.061	0.116	0.062	0.058	0.052	0.065	0.073
250.00	0.002	0.060	0.115	0.061	0.058	0.051	0.064	0.072
251.00	0.002	0.060	0.113	0.061	0.057	0.051	0.064	0.072
252.00	0.002	0.059	0.112	0.060	0.057	0.050	0.063	0.071
253.00	0.002	0.058	0.112	0.060	0.056	0.050	0.062	0.070
254.00	0.002	0.058	0.111	0.059	0.056	0.050	0.062	0.070
255.00	0.002	0.057	0.109	0.059	0.055	0.049	0.061	0.069
256.00	0.002	0.057	0.108	0.058	0.055	0.049	0.061	0.068
257.00	0.002	0.056	0.107	0.058	0.054	0.048	0.060	0.068
258.00	0.002	0.056	0.106	0.057	0.054	0.048	0.059	0.067
259.00	0.002	0.055	0.105	0.057	0.054	0.048	0.059	0.067
260.00	0.002	0.055	0.105	0.056	0.053	0.047	0.058	0.066
261.00	0.002	0.055	0.104	0.056	0.053	0.047	0.058	0.066
262.00	0.002	0.054	0.102	0.055	0.052	0.046	0.057	0.065
263.00	0.002	0.053	0.102	0.054	0.052	0.046	0.057	0.064
264.00	0.002	0.053	0.100	0.054	0.051	0.045	0.056	0.064
265.00	0.002	0.052	0.099	0.053	0.051	0.045	0.056	0.063
266.00	0.002	0.052	0.098	0.053	0.050	0.044	0.055	0.063
267.00	0.002	0.051	0.097	0.052	0.050	0.044	0.054	0.062
268.00	0.002	0.051	0.096	0.051	0.049	0.043	0.054	0.061
269.00	0.002	0.050	0.095	0.051	0.049	0.042	0.053	0.061
270.00	0.002	0.049	0.094	0.050	0.048	0.042	0.053	0.060
271.00	0.002	0.049	0.093	0.049	0.048	0.041	0.052	0.060
272.00	0.002	0.048	0.092	0.049	0.047	0.040	0.051	0.059
273.00	0.002	0.048	0.091	0.048	0.047	0.039	0.051	0.059
274.00	0.002	0.047	0.090	0.047	0.047	0.039	0.050	0.058
275.00	0.002	0.046	0.089	0.046	0.046	0.038	0.050	0.057
276.00	0.002	0.046	0.088	0.046	0.045	0.037	0.049	0.056
277.00	0.002	0.045	0.087	0.045	0.045	0.036	0.049	0.056
278.00	0.002	0.044	0.086	0.044	0.044	0.036	0.048	0.055
279.00	0.001	0.044	0.085	0.043	0.044	0.035	0.047	0.054
280.00	0.001	0.043	0.084	0.042	0.043	0.034	0.046	0.054
281.00	0.002	0.042	0.083	0.042	0.043	0.033	0.046	0.053
282.00	0.002	0.041	0.082	0.041	0.042	0.033	0.045	0.052
283.00	0.001	0.041	0.081	0.040	0.041	0.032	0.044	0.052
284.00	0.001	0.040	0.080	0.039	0.041	0.031	0.044	0.051
285.00	0.002	0.039	0.079	0.039	0.041	0.031	0.043	0.051
286.00	0.002	0.039	0.078	0.038	0.040	0.030	0.043	0.050
287.00	0.002	0.038	0.077	0.037	0.039	0.029	0.042	0.049
288.00	0.001	0.037	0.076	0.036	0.039	0.029	0.042	0.049
289.00	0.001	0.037	0.074	0.035	0.038	0.028	0.041	0.048
290.00	0.001	0.036	0.073	0.035	0.038	0.027	0.040	0.047
291.00	0.001	0.036	0.072	0.034	0.037	0.027	0.040	0.047
292.00	0.001	0.035	0.071	0.033	0.037	0.026	0.039	0.046
293.00	0.002	0.034	0.070	0.033	0.036	0.025	0.039	0.046
294.00	0.001	0.034	0.069	0.032	0.036	0.025	0.038	0.045
295.00	0.001	0.033	0.068	0.031	0.035	0.024	0.038	0.044
296.00	0.001	0.033	0.067	0.031	0.035	0.024	0.037	0.043
297.00	0.001	0.032	0.066	0.030	0.034	0.023	0.036	0.043
298.00	0.001	0.031	0.065	0.030	0.034	0.023	0.036	0.042
299.00	0.001	0.031	0.063	0.029	0.033	0.022	0.035	0.042
300.00	0.001	0.031	0.062	0.028	0.033	0.022	0.035	0.041
301.00	0.001	0.030	0.061	0.028	0.032	0.021	0.034	0.041
302.00	0.001	0.030	0.061	0.027	0.032	0.021	0.034	0.040
303.00	0.001	0.029	0.060	0.027	0.032	0.020	0.033	0.040
304.00	0.001	0.028	0.059	0.026	0.031	0.020	0.033	0.039
305.00	0.001	0.028	0.058	0.026	0.031	0.019	0.033	0.038
306.00	0.001	0.028	0.057	0.025	0.030	0.019	0.032	0.038
307.00	0.001	0.027	0.056	0.025	0.030	0.019	0.032	0.037
308.00	0.001	0.027	0.055	0.024	0.029	0.018	0.031	0.037
309.00	0.001	0.027	0.054	0.024	0.029	0.018	0.031	0.037
310.00	0.001	0.026	0.053	0.023	0.029	0.018	0.030	0.036
311.00	0.001	0.026	0.052	0.023	0.028	0.018	0.030	0.036
312.00	0.001	0.025	0.052	0.022	0.028	0.017	0.030	0.035
313.00	0.001	0.025	0.051	0.022	0.028	0.017	0.029	0.035
314.00	0.001	0.025	0.050	0.022	0.027	0.016	0.029	0.034
315.00	0.001	0.024	0.050	0.021	0.027	0.016	0.028	0.034
316.00	0.001	0.024	0.049	0.021	0.026	0.016	0.027	0.033
317.00	0.001	0.023	0.048	0.020	0.026	0.016	0.027	0.033
318.00	0.001	0.023	0.048	0.020	0.026	0.015	0.027	0.032
319.00	0.001	0.023	0.047	0.020	0.025	0.015	0.026	0.032
320.00	0.001	0.022	0.046	0.019	0.025	0.014	0.026	0.031
321.00	0.001	0.022	0.045	0.019	0.025	0.014	0.025	0.031
322.00	0.001	0.022	0.044	0.018	0.024	0.014	0.025	0.030
323.00	0.001	0.021	0.044	0.018	0.024	0.014	0.025	0.030
324.00	0.001	0.021	0.043	0.018	0.024	0.014	0.024	0.030
325.00	0.001	0.021	0.043	0.018	0.024	0.013	0.024	0.029
326.00	0.001	0.021	0.042	0.017	0.023	0.013	0.024	0.029
327.00	0.001	0.020	0.041	0.017	0.023	0.013	0.023	0.028
328.00	0.001	0.020	0.041	0.017	0.022	0.013	0.023	0.028
329.00	0.001	0.020	0.040	0.017	0.022	0.013	0.023	0.028
330.00	0.001	0.020	0.040	0.016	0.022	0.012	0.022	0.028
331.00	0.001	0.020	0.039	0.016	0.022	0.012	0.022	0.027
332.00	0.001	0.019	0.038	0.016	0.021	0.012	0.022	0.027
333.00	0.001	0.019	0.038	0.015	0.021	0.012	0.022	0.026
334.00	0.001	0.019	0.037	0.015	0.021	0.012	0.021	0.026
335.00	0.001	0.019	0.037	0.015	0.021	0.012	0.021	0.026
336.00	0.001	0.018	0.036	0.015	0.020	0.011	0.021	0.025
337.00	0.001	0.018	0.035	0.015	0.020	0.011	0.021	0.025
338.00	0.001	0.018	0.035	0.014	0.020	0.010	0.020	0.025
339.00	0.001	0.018	0.034	0.014	0.020	0.011	0.020	0.025
340.00	0.002	0.018	0.035	0.015	0.021	0.012	0.020	0.025
341.00	0.001	0.017	0.033	0.014	0.019	0.011	0.019	0.024
342.00	0.001	0.016	0.032	0.013	0.018	0.010	0.018	0.023
343.00	0.001	0.016	0.032	0.013	0.018	0.010	0.018	0.023
344.00	0.001	0.016	0.031	0.013	0.018	0.010	0.018	0.022
345.00	0.001	0.016	0.031	0.013	0.018	0.010	0.018	0.022
346.00	0.001	0.016	0.030	0.012	0.018	0.009	0.017	0.022
347.00	0.001	0.015	0.029	0.012	0.017	0.009	0.017	0.021
348.00	0.001	0.015	0.029	0.012	0.017	0.009	0.017	0.021
349.00	0.001	0.015	0.029	0.012	0.017	0.009	0.017	0.021
350.00	0.001	0.015	0.028	0.012	0.017	0.009	0.016	0.021
351.00	0.001	0.015	0.028	0.011	0.017	0.009	0.016	0.020
352.00	0.001	0.015	0.027	0.011	0.016	0.008	0.016	0.020
353.00	0.001	0.014	0.027	0.011	0.016	0.008	0.016	0.020
354.00	0.001	0.014	0.026	0.011	0.016	0.008	0.015	0.019
355.00	0.001	0.014	0.026	0.011	0.016	0.008	0.015	0.019
356.00	0.001	0.014	0.026	0.010	0.015	0.008	0.015	0.019
357.00	0.001	0.014	0.025	0.010	0.015	0.008	0.015	0.019
358.00	0.001	0.013	0.025	0.010	0.015	0.008	0.014	0.018
359.00	0.001	0.013	0.024	0.010	0.015	0.008	0.014	0.018
360.00	0.001	0.013	0.024	0.010	0.014	0.007	0.014	0.018
361.00	0.001	0.013	0.023	0.010	0.014	0.007	0.014	0.017
362.00	0.001	0.013	0.023	0.009	0.014	0.007	0.013	0.017
363.00	0.001	0.012	0.023	0.009	0.014	0.007	0.013	0.017
364.00	0.001	0.012	0.022	0.009	0.014	0.007	0.013	0.016
365.00	0.001	0.012	0.022	0.009	0.013	0.007	0.013	0.016
366.00	0.001	0.012	0.022	0.009	0.013	0.007	0.012	0.016
367.00	0.001	0.012	0.021	0.009	0.013	0.007	0.012	0.016
368.00	0.001	0.012	0.021	0.008	0.013	0.006	0.012	0.015
369.00	0.001	0.012	0.021	0.009	0.013	0.006	0.011	0.015
370.00	0.001	0.011	0.020	0.008	0.012	0.006	0.011	0.015
371.00	0.001	0.011	0.020	0.008	0.012	0.006	0.011	0.015
372.00	0.001	0.011	0.020	0.008	0.012	0.006	0.011	0.015
373.00	0.001	0.011	0.019	0.008	0.012	0.006	0.011	0.015
374.00	0.001	0.011	0.019	0.008	0.012	0.006	0.011	0.014
375.00	0.001	0.011	0.019	0.008	0.012	0.006	0.011	0.014
376.00	0.001	0.011	0.019	0.008	0.011	0.006	0.010	0.014
377.00	0.001	0.010	0.018	0.007	0.011	0.006	0.010	0.014
378.00	0.001	0.010	0.018	0.007	0.011	0.006	0.010	0.014
379.00	0.001	0.010	0.018	0.007	0.011	0.006	0.010	0.013
380.00	0.001	0.010	0.017	0.007	0.011	0.005	0.010	0.013
381.00	0.001	0.010	0.017	0.007	0.011	0.005	0.010	0.013
382.00	0.001	0.010	0.017	0.007	0.011	0.005	0.009	0.013
383.00	0.001	0.010	0.017	0.007	0.010	0.006	0.010	0.013
384.00	0.001	0.010	0.016	0.007	0.010	0.005	0.009	0.012
385.00	0.001	0.010	0.016	0.007	0.010	0.005	0.009	0.012
386.00	0.001	0.010	0.016	0.007	0.010	0.005	0.009	0.012
387.00	0.001	0.009	0.015	0.006	0.010	0.005	0.009	0.012
388.00	0.001	0.009	0.015	0.006	0.010	0.005	0.009	0.012
389.00	0.001	0.009	0.015	0.006	0.010	0.005	0.009	0.012
390.00	0.001	0.009	0.015	0.006	0.010	0.005	0.008	0.011
391.00	0.001	0.009	0.015	0.006	0.009	0.005	0.008	0.011
392.00	0.001	0.009	0.014	0.006	0.009	0.005	0.008	0.011
393.00	0.001	0.009	0.014	0.006	0.009	0.005	0.008	0.011
394.00	0.001	0.009	0.014	0.006	0.009	0.005	0.008	0.011
395.00	0.001	0.009	0.014	0.006	0.009	0.004	0.008	0.010
396.00	0.001	0.009	0.014	0.006	0.009	0.004	0.008	0.010
397.00	0.001	0.008	0.013	0.006	0.009	0.004	0.007	0.010
398.00	0.001	0.008	0.013	0.005	0.009	0.004	0.007	0.010
399.00	0.001	0.008	0.013	0.005	0.008	0.004	0.007	0.010
400.00	0.001	0.008	0.013	0.005	0.008	0.004	0.007	0.010
401.00	0.000	0.008	0.012	0.005	0.008	0.004	0.007	0.009
402.00	0.001	0.008	0.012	0.005	0.008	0.004	0.007	0.009
403.00	0.001	0.008	0.012	0.005	0.008	0.004	0.007	0.009
404.00	0.001	0.008	0.012	0.005	0.008	0.004	0.007	0.009
405.00	0.001	0.008	0.012	0.005	0.008	0.004	0.006	0.009
406.00	0.001	0.008	0.012	0.005	0.008	0.004	0.006	0.009
407.00	0.001	0.007	0.011	0.005	0.008	0.004	0.006	0.009
408.00	0.001	0.007	0.011	0.005	0.008	0.004	0.006	0.009
409.00	0.000	0.007	0.011	0.005	0.008	0.004	0.006	0.008
410.00	0.000	0.007	0.011	0.004	0.007	0.004	0.006	0.008
411.00	0.000	0.007	0.011	0.004	0.007	0.004	0.006	0.008
412.00	0.001	0.007	0.011	0.004	0.007	0.004	0.006	0.008
413.00	0.001	0.007	0.011	0.004	0.007	0.004	0.006	0.008
414.00	0.001	0.007	0.010	0.004	0.007	0.003	0.006	0.008
415.00	0.001	0.007	0.010	0.004	0.007	0.003	0.006	0.008
416.00	0.001	0.007	0.010	0.004	0.007	0.003	0.006	0.008
417.00	0.000	0.007	0.010	0.004	0.007	0.003	0.005	0.007
418.00	0.001	0.007	0.010	0.004	0.007	0.003	0.005	0.007
419.00	0.000	0.006	0.010	0.004	0.007	0.003	0.005	0.007
420.00	0.000	0.006	0.009	0.004	0.006	0.003	0.005	0.007
421.00	0.000	0.006	0.009	0.004	0.006	0.003	0.005	0.007
422.00	0.000	0.006	0.009	0.004	0.006	0.003	0.005	0.007
423.00	0.000	0.006	0.009	0.004	0.006	0.003	0.005	0.007
424.00	0.000	0.006	0.009	0.004	0.006	0.003	0.005	0.007
425.00	0.000	0.006	0.009	0.003	0.006	0.003	0.005	0.006
426.00	0.000	0.006	0.009	0.003	0.006	0.003	0.004	0.006
427.00	0.000	0.006	0.009	0.003	0.006	0.003	0.005	0.006
428.00	0.000	0.006	0.009	0.003	0.006	0.003	0.004	0.006
429.00	0.000	0.006	0.008	0.003	0.006	0.002	0.004	0.006
430.00	0.000	0.006	0.008	0.003	0.006	0.002	0.004	0.006
431.00	0.000	0.006	0.008	0.003	0.006	0.003	0.004	0.006
432.00	0.000	0.006	0.008	0.003	0.006	0.003	0.004	0.006
433.00	0.000	0.006	0.008	0.003	0.006	0.003	0.004	0.006
434.00	0.000	0.006	0.008	0.003	0.006	0.003	0.004	0.006
435.00	0.000	0.006	0.008	0.003	0.005	0.002	0.004	0.006
436.00	0.000	0.006	0.008	0.003	0.005	0.002	0.004	0.005
437.00	0.000	0.006	0.008	0.003	0.005	0.002	0.004	0.005
438.00	0.000	0.006	0.008	0.003	0.005	0.002	0.004	0.005
439.00	0.000	0.006	0.007	0.003	0.005	0.002	0.004	0.005
440.00	0.000	0.005	0.007	0.003	0.005	0.002	0.003	0.005
441.00	0.000	0.005	0.007	0.003	0.005	0.002	0.003	0.005
442.00	0.000	0.005	0.007	0.003	0.005	0.002	0.003	0.005
443.00	0.000	0.005	0.007	0.003	0.005	0.002	0.003	0.005
444.00	0.000	0.005	0.007	0.003	0.005	0.002	0.003	0.005
445.00	0.000	0.005	0.007	0.003	0.005	0.002	0.003	0.005
446.00	0.000	0.005	0.007	0.003	0.005	0.002	0.003	0.005
447.00	0.000	0.005	0.007	0.003	0.005	0.002	0.003	0.005
448.00	0.000	0.005	0.007	0.002	0.005	0.002	0.003	0.004
449.00	0.000	0.005	0.007	0.002	0.005	0.002	0.003	0.004
450.00	0.000	0.005	0.007	0.002	0.005	0.002	0.003	0.004
451.00	0.000	0.005	0.006	0.002	0.005	0.002	0.003	0.004
452.00	0.000	0.005	0.006	0.002	0.005	0.002	0.003	0.004
453.00	0.000	0.005	0.006	0.002	0.004	0.002	0.003	0.004
454.00	0.000	0.005	0.006	0.002	0.004	0.002	0.003	0.004
455.00	0.000	0.005	0.006	0.002	0.004	0.002	0.003	0.004
456.00	0.001	0.005	0.006	0.002	0.004	0.002	0.003	0.004
457.00	0.000	0.005	0.006	0.002	0.004	0.002	0.003	0.004
458.00	0.000	0.005	0.006	0.002	0.004	0.002	0.003	0.004
459.00	0.000	0.005	0.006	0.002	0.004	0.002	0.003	0.004
460.00	0.001	0.005	0.006	0.002	0.004	0.002	0.003	0.004
461.00	0.001	0.005	0.006	0.002	0.004	0.002	0.003	0.004
462.00	0.000	0.005	0.006	0.002	0.004	0.002	0.003	0.004
463.00	0.000	0.005	0.006	0.002	0.004	0.002	0.003	0.004
464.00	0.000	0.005	0.006	0.002	0.004	0.002	0.003	0.004
465.00	0.000	0.005	0.006	0.002	0.004	0.002	0.003	0.004
466.00	0.000	0.005	0.006	0.002	0.004	0.002	0.003	0.004
467.00	0.000	0.005	0.006	0.002	0.004	0.002	0.003	0.004
468.00	0.000	0.005	0.006	0.002	0.004	0.002	0.003	0.004
469.00	0.000	0.005	0.006	0.002	0.004	0.002	0.003	0.004
470.00	0.001	0.005	0.005	0.002	0.004	0.002	0.002	0.004
471.00	0.001	0.005	0.005	0.002	0.004	0.002	0.002	0.004
472.00	0.000	0.005	0.005	0.002	0.004	0.002	0.002	0.003
473.00	0.000	0.004	0.005	0.002	0.004	0.002	0.002	0.003
474.00	0.000	0.004	0.005	0.002	0.004	0.002	0.002	0.003
475.00	0.000	0.004	0.005	0.002	0.004	0.002	0.002	0.003
476.00	0.000	0.004	0.005	0.002	0.004	0.002	0.002	0.003
477.00	0.000	0.004	0.005	0.002	0.004	0.002	0.002	0.003
478.00	0.000	0.004	0.005	0.002	0.004	0.002	0.002	0.003
479.00	0.000	0.004	0.005	0.002	0.003	0.002	0.002	0.003
480.00	0.000	0.004	0.005	0.002	0.003	0.002	0.002	0.003
481.00	0.000	0.004	0.005	0.002	0.003	0.002	0.002	0.003
482.00	0.000	0.004	0.005	0.002	0.003	0.002	0.002	0.003
483.00	0.000	0.004	0.005	0.002	0.003	0.001	0.002	0.003
484.00	0.000	0.004	0.005	0.002	0.003	0.001	0.002	0.003
485.00	0.000	0.004	0.005	0.002	0.003	0.001	0.002	0.003
486.00	0.000	0.004	0.005	0.002	0.003	0.001	0.002	0.003
487.00	0.000	0.004	0.005	0.002	0.003	0.001	0.002	0.003
488.00	0.000	0.004	0.004	0.001	0.003	0.001	0.002	0.003
489.00	0.000	0.004	0.004	0.001	0.003	0.001	0.002	0.003
490.00	0.000	0.004	0.004	0.001	0.003	0.001	0.002	0.002
491.00	0.000	0.004	0.004	0.001	0.003	0.001	0.002	0.002
492.00	0.000	0.004	0.004	0.001	0.003	0.001	0.002	0.002
493.00	0.000	0.004	0.004	0.001	0.003	0.001	0.002	0.002
494.00	0.000	0.004	0.004	0.001	0.003	0.001	0.002	0.002
495.00	0.000	0.004	0.004	0.001	0.003	0.001	0.002	0.002
496.00	0.000	0.004	0.004	0.001	0.003	0.001	0.002	0.002
497.00	0.000	0.004	0.004	0.001	0.003	0.001	0.002	0.002
498.00	0.000	0.004	0.004	0.001	0.003	0.001	0.002	0.002
499.00	0.000	0.004	0.004	0.001	0.003	0.001	0.002	0.002
500.00	0.000	0.004	0.004	0.001	0.003	0.001	0.002	0.002
501.00	0.000	0.004	0.004	0.001	0.003	0.001	0.002	0.002
502.00	0.000	0.004	0.004	0.001	0.003	0.001	0.002	0.002
503.00	0.000	0.004	0.004	0.001	0.003	0.001	0.001	0.002
504.00	0.000	0.004	0.004	0.001	0.003	0.001	0.001	0.002
505.00	0.000	0.004	0.004	0.001	0.003	0.001	0.001	0.002
506.00	0.000	0.004	0.004	0.001	0.003	0.001	0.002	0.002
507.00	0.000	0.004	0.004	0.001	0.003	0.001	0.001	0.002
508.00	0.000	0.004	0.004	0.001	0.003	0.001	0.001	0.002
509.00	0.000	0.004	0.004	0.001	0.003	0.001	0.001	0.002
510.00	0.000	0.004	0.004	0.001	0.003	0.001	0.001	0.002
511.00	0.000	0.004	0.004	0.001	0.003	0.001	0.001	0.002
512.00	0.000	0.004	0.004	0.001	0.003	0.001	0.001	0.002
513.00	0.000	0.003	0.004	0.001	0.003	0.001	0.001	0.002
514.00	0.000	0.003	0.004	0.001	0.003	0.001	0.001	0.002
515.00	0.000	0.003	0.004	0.001	0.003	0.001	0.001	0.002
516.00	0.000	0.003	0.004	0.001	0.003	0.001	0.001	0.002
517.00	0.000	0.003	0.004	0.001	0.003	0.001	0.001	0.002
518.00	0.000	0.003	0.004	0.001	0.002	0.001	0.001	0.002
519.00	0.000	0.003	0.004	0.001	0.002	0.001	0.001	0.002
520.00	0.000	0.003	0.004	0.001	0.003	0.001	0.001	0.002
521.00	0.000	0.003	0.004	0.001	0.002	0.001	0.001	0.002
522.00	0.000	0.003	0.003	0.001	0.002	0.001	0.001	0.002
523.00	0.000	0.003	0.003	0.001	0.002	0.001	0.001	0.002
524.00	0.000	0.003	0.003	0.001	0.002	0.001	0.001	0.002
525.00	0.000	0.003	0.003	0.001	0.002	0.001	0.001	0.002
526.00	0.000	0.003	0.003	0.001	0.002	0.001	0.001	0.002
527.00	0.000	0.003	0.003	0.001	0.002	0.001	0.001	0.001
528.00	0.000	0.003	0.003	0.001	0.002	0.001	0.001	0.001
529.00	0.000	0.003	0.003	0.001	0.002	0.001	0.001	0.001
530.00	0.000	0.003	0.003	0.001	0.002	0.001	0.001	0.001
531.00	0.000	0.003	0.003	0.001	0.002	0.001	0.001	0.001
532.00	0.000	0.003	0.003	0.001	0.002	0.001	0.001	0.001
533.00	0.000	0.003	0.003	0.001	0.002	0.001	0.001	0.001
534.00	0.000	0.003	0.003	0.001	0.002	0.001	0.001	0.001
535.00	0.000	0.003	0.003	0.001	0.002	0.001	0.001	0.002
536.00	0.001	0.004	0.004	0.002	0.003	0.002	0.002	0.002
537.00	0.000	0.003	0.003	0.001	0.002	0.001	0.001	0.001
538.00	0.000	0.003	0.003	0.001	0.002	0.001	0.001	0.001
539.00	0.000	0.003	0.003	0.001	0.002	0.001	0.001	0.001
540.00	0.000	0.003	0.003	0.001	0.002	0.001	0.001	0.001
541.00	0.000	0.003	0.003	0.001	0.002	0.001	0.001	0.001
542.00	0.000	0.003	0.003	0.001	0.002	0.001	0.001	0.001
543.00	0.000	0.003	0.003	0.001	0.002	0.001	0.001	0.001
544.00	0.000	0.003	0.003	0.001	0.002	0.001	0.001	0.001
545.00	0.000	0.003	0.003	0.001	0.002	0.001	0.001	0.001
546.00	0.000	0.003	0.003	0.001	0.002	0.001	0.001	0.001
547.00	0.000	0.003	0.003	0.001	0.002	0.001	0.001	0.001
548.00	0.000	0.003	0.003	0.001	0.002	0.001	0.001	0.001
549.00	0.000	0.003	0.003	0.001	0.002	0.001	0.001	0.001
550.00	0.000	0.003	0.003	0.001	0.002	0.001	0.001	0.001
551.00	0.000	0.003	0.003	0.001	0.002	0.001	0.001	0.001
552.00	0.000	0.003	0.003	0.001	0.002	0.001	0.001	0.001
553.00	0.000	0.003	0.003	0.001	0.002	0.001	0.001	0.001
554.00	0.000	0.003	0.003	0.001	0.002	0.001	0.001	0.001
555.00	0.000	0.003	0.003	0.001	0.002	0.001	0.001	0.001
556.00	0.000	0.003	0.003	0.001	0.002	0.001	0.001	0.001
557.00	0.000	0.003	0.003	0.001	0.002	0.001	0.001	0.001
558.00	0.000	0.003	0.003	0.001	0.002	0.001	0.001	0.001
559.00	0.000	0.003	0.003	0.001	0.002	0.001	0.001	0.001
560.00	0.000	0.003	0.003	0.001	0.002	0.001	0.001	0.001
561.00	0.000	0.003	0.003	0.001	0.002	0.001	0.001	0.001
562.00	0.000	0.003	0.003	0.001	0.002	0.001	0.001	0.001
563.00	0.000	0.003	0.003	0.001	0.002	0.001	0.001	0.001
564.00	0.000	0.003	0.003	0.001	0.002	0.001	0.001	0.001
565.00	0.000	0.003	0.003	0.001	0.002	0.001	0.001	0.001
566.00	0.000	0.003	0.003	0.001	0.002	0.001	0.001	0.001
567.00	0.000	0.003	0.003	0.001	0.002	0.001	0.001	0.001
568.00	0.000	0.003	0.003	0.001	0.002	0.001	0.001	0.001
569.00	0.000	0.003	0.003	0.001	0.002	0.001	0.001	0.001
570.00	0.000	0.003	0.003	0.001	0.002	0.001	0.001	0.001
571.00	0.000	0.003	0.003	0.001	0.002	0.001	0.001	0.001
572.00	0.000	0.003	0.003	0.001	0.002	0.001	0.001	0.001
573.00	0.000	0.003	0.003	0.001	0.002	0.001	0.001	0.001
574.00	0.000	0.003	0.003	0.001	0.002	0.001	0.001	0.001
575.00	0.000	0.003	0.003	0.001	0.002	0.001	0.001	0.001
576.00	0.000	0.003	0.003	0.001	0.002	0.001	0.001	0.001
577.00	0.000	0.003	0.003	0.001	0.002	0.001	0.001	0.001
578.00	0.000	0.003	0.003	0.001	0.002	0.001	0.001	0.001
579.00	0.000	0.003	0.003	0.001	0.002	0.001	0.001	0.001
580.00	0.000	0.003	0.003	0.001	0.002	0.001	0.001	0.001
581.00	0.000	0.003	0.003	0.001	0.002	0.001	0.001	0.001
582.00	0.000	0.003	0.003	0.001	0.002	0.001	0.001	0.001
583.00	0.000	0.003	0.003	0.001	0.002	0.001	0.001	0.001
584.00	0.000	0.003	0.002	0.001	0.002	0.001	0.001	0.001
585.00	0.000	0.003	0.002	0.001	0.002	0.001	0.001	0.001
586.00	0.000	0.003	0.002	0.001	0.002	0.001	0.001	0.001
587.00	0.000	0.003	0.002	0.001	0.002	0.001	0.001	0.001
588.00	0.000	0.003	0.003	0.001	0.002	0.001	0.001	0.001
589.00	0.000	0.003	0.002	0.001	0.002	0.001	0.001	0.001
590.00	0.000	0.003	0.002	0.001	0.002	0.001	0.001	0.001
591.00	0.000	0.003	0.002	0.001	0.002	0.001	0.001	0.001
592.00	0.000	0.003	0.002	0.001	0.002	0.001	0.001	0.001
593.00	0.000	0.003	0.002	0.001	0.002	0.001	0.001	0.001
594.00	0.000	0.003	0.002	0.001	0.002	0.001	0.001	0.001
595.00	0.000	0.002	0.002	0.001	0.002	0.001	0.001	0.001
596.00	0.000	0.003	0.002	0.001	0.002	0.001	0.001	0.001
597.00	0.000	0.003	0.002	0.001	0.002	0.001	0.001	0.001
598.00	0.000	0.002	0.002	0.001	0.002	0.001	0.001	0.001
599.00	0.000	0.003	0.002	0.001	0.002	0.001	0.001	0.001
600.00	0.000	0.002	0.002	0.001	0.002	0.001	0.001	0.001
601.00	0.000	0.003	0.002	0.001	0.002	0.000	0.001	0.001
602.00	0.000	0.003	0.002	0.001	0.002	0.000	0.001	0.001
603.00	0.000	0.002	0.002	0.001	0.002	0.000	0.001	0.001
604.00	0.000	0.002	0.002	0.001	0.002	0.000	0.001	0.001
605.00	0.000	0.002	0.002	0.000	0.002	0.000	0.000	0.000
606.00	0.000	0.002	0.002	0.000	0.002	0.000	0.001	0.001
607.00	0.000	0.002	0.002	0.001	0.001	0.000	0.001	0.000
608.00	0.000	0.002	0.002	0.000	0.001	0.000	0.001	0.000
609.00	0.000	0.002	0.002	0.000	0.002	0.000	0.001	0.000
610.00	0.000	0.002	0.002	0.000	0.001	0.000	0.000	0.000
611.00	0.000	0.002	0.002	0.000	0.001	0.000	0.000	0.000
612.00	0.000	0.002	0.002	0.000	0.001	0.000	0.000	0.000
613.00	0.000	0.002	0.002	0.000	0.002	0.000	0.000	0.000
614.00	0.000	0.002	0.002	0.000	0.001	0.000	0.000	0.000
615.00	0.000	0.002	0.002	0.000	0.001	0.000	0.000	0.000
616.00	0.000	0.002	0.002	0.000	0.001	0.000	0.000	0.000
617.00	0.000	0.002	0.002	0.000	0.001	0.000	0.000	0.000
618.00	0.000	0.002	0.002	0.000	0.001	0.000	0.001	0.000
619.00	0.000	0.002	0.002	0.000	0.001	0.000	0.000	0.000
620.00	0.000	0.002	0.002	0.001	0.001	0.000	0.000	0.000
621.00	0.000	0.002	0.002	0.001	0.001	0.000	0.000	0.000
622.00	0.000	0.002	0.002	0.001	0.001	0.000	0.000	0.000
623.00	0.000	0.002	0.002	0.000	0.001	0.000	0.000	0.000
624.00	0.000	0.002	0.002	0.001	0.001	0.000	0.000	0.000
625.00	0.000	0.002	0.002	0.000	0.001	0.000	0.000	0.000
626.00	0.000	0.002	0.002	0.000	0.001	0.000	0.000	0.000
627.00	0.000	0.002	0.002	0.000	0.001	0.000	0.000	0.000
628.00	0.000	0.002	0.002	0.000	0.001	0.000	0.000	0.000
629.00	0.000	0.002	0.002	0.000	0.001	0.000	0.000	0.000
630.00	0.000	0.002	0.002	0.000	0.001	0.000	0.000	0.000
631.00	0.000	0.002	0.002	0.000	0.001	0.000	0.000	0.000
632.00	0.000	0.002	0.002	0.000	0.001	0.000	0.000	0.000
633.00	0.000	0.002	0.002	0.000	0.001	0.000	0.000	0.000
634.00	0.000	0.002	0.002	0.000	0.001	0.000	0.000	0.000
635.00	0.000	0.002	0.002	0.000	0.001	0.000	0.000	0.000
636.00	-0.000	0.002	0.002	0.000	0.001	0.000	0.000	0.000
637.00	-0.000	0.002	0.002	0.000	0.001	0.000	0.000	0.000
638.00	-0.000	0.002	0.002	0.000	0.001	0.000	0.000	-0.000
639.00	-0.000	0.002	0.002	0.000	0.001	0.000	0.000	-0.000
640.00	-0.000	0.002	0.002	0.000	0.001	0.000	0.000	0.000
641.00	-0.000	0.002	0.002	0.000	0.001	0.000	0.000	0.000
642.00	-0.000	0.002	0.002	0.000	0.001	0.000	0.000	0.000
643.00	-0.000	0.002	0.002	0.000	0.001	0.000	0.000	0.000
644.00	-0.000	0.002	0.002	0.000	0.001	0.000	0.000	0.000
645.00	-0.000	0.002	0.002	0.000	0.001	0.000	0.000	0.000
646.00	-0.000	0.002	0.002	0.000	0.001	0.000	0.000	-0.000
647.00	-0.000	0.002	0.002	0.000	0.001	0.000	0.000	0.000
648.00	-0.000	0.002	0.002	0.000	0.001	0.000	0.000	0.000
649.00	-0.000	0.002	0.002	0.000	0.001	0.000	0.000	0.000
650.00	-0.000	0.002	0.002	0.000	0.001	0.000	0.000	0.000
651.00	0.000	0.002	0.002	0.000	0.001	0.000	0.000	0.000
652.00	0.000	0.002	0.002	0.000	0.001	0.000	0.000	0.000
653.00	0.000	0.002	0.002	0.000	0.001	0.000	0.000	0.000
654.00	-0.000	0.002	0.002	0.000	0.001	0.000	0.000	0.000
655.00	0.000	0.002	0.002	0.000	0.001	0.000	0.000	0.000
656.00	-0.000	0.002	0.001	0.000	0.001	0.000	0.000	0.000
657.00	-0.000	0.002	0.001	0.000	0.001	0.000	0.000	0.000
658.00	-0.000	0.002	0.001	0.000	0.001	0.000	0.000	0.000
659.00	-0.000	0.002	0.002	0.000	0.001	0.000	0.000	0.000
660.00	-0.000	0.002	0.001	0.000	0.001	0.000	0.000	0.000
661.00	-0.000	0.002	0.001	0.000	0.001	0.000	0.000	0.000
662.00	-0.000	0.002	0.001	0.000	0.001	0.000	0.000	0.000
663.00	-0.000	0.002	0.001	0.000	0.001	0.000	0.000	0.000
664.00	-0.000	0.002	0.001	0.000	0.001	0.000	0.000	0.000
665.00	-0.000	0.002	0.001	0.000	0.001	0.000	0.000	0.000
666.00	-0.000	0.002	0.001	0.000	0.001	0.000	0.000	0.000
667.00	-0.000	0.002	0.001	0.000	0.001	0.000	0.000	0.000
668.00	-0.000	0.002	0.001	0.000	0.001	0.000	0.000	0.000
669.00	-0.000	0.002	0.001	0.000	0.001	0.000	0.000	0.000
670.00	0.000	0.002	0.001	0.000	0.001	0.000	0.000	0.000
671.00	-0.000	0.002	0.001	0.000	0.001	0.000	0.000	0.000
672.00	-0.000	0.002	0.001	0.000	0.001	0.000	0.000	0.000
673.00	0.000	0.002	0.001	0.000	0.001	0.000	0.000	0.000
674.00	-0.000	0.002	0.001	0.000	0.001	0.000	0.000	0.000
675.00	0.000	0.002	0.001	0.000	0.001	0.000	0.000	0.000
676.00	0.000	0.002	0.001	0.000	0.001	0.000	0.000	0.000
677.00	-0.000	0.002	0.001	0.000	0.001	0.000	0.000	0.000
678.00	-0.000	0.002	0.001	0.000	0.001	0.000	0.000	0.000
679.00	-0.000	0.002	0.001	0.000	0.001	0.000	0.000	-0.000
680.00	-0.000	0.002	0.001	0.000	0.001	0.000	0.000	0.000
681.00	-0.000	0.002	0.001	0.000	0.001	0.000	0.000	0.000
682.00	-0.000	0.002	0.001	0.000	0.001	0.000	0.000	0.000
683.00	-0.000	0.002	0.001	0.000	0.001	0.000	0.000	0.000
684.00	0.000	0.002	0.001	0.000	0.001	0.000	0.000	0.000
685.00	0.000	0.002	0.001	0.000	0.001	0.000	0.000	0.000
686.00	-0.000	0.002	0.001	0.000	0.001	0.000	0.000	0.000
687.00	-0.000	0.002	0.001	0.000	0.001	0.000	0.000	0.000
688.00	-0.000	0.002	0.001	0.000	0.001	0.000	0.000	0.000
689.00	-0.000	0.002	0.001	0.000	0.001	0.000	0.000	0.000
690.00	-0.000	0.002	0.001	0.000	0.001	0.000	0.000	0.000
691.00	-0.000	0.002	0.001	0.000	0.001	0.000	0.000	0.000
692.00	0.000	0.002	0.001	0.000	0.001	0.000	0.000	0.000
693.00	-0.000	0.002	0.001	0.000	0.001	0.000	0.000	-0.000
694.00	-0.000	0.002	0.001	0.000	0.001	0.000	0.000	-0.000
695.00	0.000	0.002	0.001	0.000	0.001	0.000	0.000	0.000
696.00	-0.000	0.002	0.001	0.000	0.001	0.000	0.000	-0.000
697.00	-0.000	0.002	0.001	0.000	0.001	0.000	0.000	0.000
698.00	-0.000	0.002	0.001	0.000	0.001	0.000	0.000	-0.000
699.00	0.000	0.002	0.001	0.000	0.001	0.000	0.000	-0.000
700.00	0.000	0.002	0.001	0.000	0.001	0.000	0.000	-0.000
701.00	0.000	0.002	0.001	0.000	0.001	0.000	0.000	-0.000
702.00	0.000	0.002	0.001	0.000	0.001	0.000	0.000	0.000
703.00	0.000	0.002	0.001	0.000	0.001	0.000	0.000	0.000
704.00	0.000	0.002	0.001	0.000	0.001	0.000	0.000	-0.000
705.00	0.000	0.002	0.001	0.000	0.001	0.000	0.000	-0.000
706.00	0.000	0.002	0.001	0.000	0.001	0.000	0.000	-0.000
707.00	0.000	0.002	0.001	0.000	0.001	0.000	0.000	-0.000
708.00	0.000	0.002	0.001	0.000	0.001	0.000	0.000	-0.000
709.00	0.000	0.002	0.001	0.000	0.001	0.000	0.000	-0.000
710.00	0.000	0.002	0.001	0.000	0.001	-0.000	0.000	-0.000
711.00	0.000	0.002	0.001	0.000	0.001	0.000	0.000	-0.000
712.00	0.000	0.002	0.001	0.000	0.001	0.000	0.000	-0.000
713.00	0.000	0.002	0.001	0.000	0.001	0.000	0.000	-0.000
714.00	0.000	0.002	0.001	0.000	0.001	0.000	0.000	0.000
715.00	0.000	0.002	0.001	0.000	0.001	0.000	0.000	0.000
716.00	0.000	0.002	0.001	0.000	0.001	0.000	0.000	-0.000
717.00	0.000	0.002	0.001	0.000	0.001	-0.000	0.000	-0.000
718.00	-0.000	0.002	0.001	0.000	0.001	-0.000	0.000	-0.000
719.00	-0.000	0.002	0.001	0.000	0.001	-0.000	0.000	-0.000
720.00	0.000	0.002	0.001	0.000	0.001	-0.000	0.000	-0.000
721.00	0.000	0.002	0.001	0.000	0.001	-0.000	0.000	-0.000
722.00	0.000	0.002	0.001	0.000	0.001	-0.000	0.000	-0.000
723.00	0.000	0.002	0.001	0.000	0.001	-0.000	0.000	-0.000
724.00	0.000	0.002	0.001	0.000	0.001	-0.000	0.000	-0.000
725.00	0.000	0.002	0.001	0.000	0.001	-0.000	0.000	-0.000
726.00	0.000	0.002	0.001	0.000	0.001	-0.000	0.000	-0.000
727.00	0.000	0.002	0.001	0.000	0.001	-0.000	0.000	-0.000
728.00	0.000	0.002	0.001	0.000	0.001	-0.000	0.000	-0.000
729.00	0.000	0.002	0.001	0.000	0.001	-0.000	-0.000	-0.000
730.00	0.000	0.002	0.001	0.000	0.001	-0.000	-0.000	-0.000
731.00	0.000	0.002	0.001	0.000	0.001	-0.000	-0.000	-0.000
732.00	0.000	0.002	0.001	0.000	0.001	-0.000	0.000	-0.000
733.00	0.000	0.002	0.001	0.000	0.001	-0.000	0.000	-0.000
734.00	0.000	0.002	0.001	0.000	0.001	-0.000	0.000	-0.000
735.00	0.000	0.002	0.001	0.000	0.001	-0.000	0.000	-0.000
736.00	0.000	0.002	0.001	0.000	0.001	-0.000	0.000	-0.000
737.00	0.000	0.002	0.001	0.000	0.001	-0.000	0.000	-0.000
738.00	0.000	0.002	0.001	-0.000	0.001	-0.000	-0.000	-0.000
739.00	0.000	0.002	0.001	-0.000	0.001	-0.000	-0.000	-0.000
740.00	0.000	0.002	0.001	0.000	0.001	-0.000	0.000	-0.000
741.00	0.000	0.002	0.001	0.000	0.001	-0.000	-0.000	-0.000
742.00	0.000	0.002	0.001	0.000	0.001	-0.000	-0.000	-0.000
743.00	0.000	0.002	0.001	0.000	0.001	-0.000	-0.000	-0.000
744.00	0.000	0.002	0.001	0.000	0.001	-0.000	0.000	-0.000
745.00	0.000	0.002	0.001	0.000	0.001	-0.000	0.000	-0.000
746.00	0.000	0.002	0.001	0.000	0.001	-0.000	0.000	-0.000
747.00	0.000	0.002	0.001	0.000	0.001	-0.000	0.000	-0.000
748.00	0.000	0.002	0.001	0.000	0.001	-0.000	-0.000	-0.000
749.00	0.000	0.002	0.001	0.000	0.001	0.000	0.000	-0.000
750.00	0.000	0.002	0.001	0.000	0.001	-0.000	0.000	-0.000
751.00	0.000	0.002	0.001	0.000	0.001	-0.000	0.000	0.000
752.00	0.000	0.002	0.001	0.000	0.001	-0.000	0.000	-0.000
753.00	0.000	0.002	0.001	0.000	0.001	-0.000	0.000	-0.000
754.00	0.000	0.002	0.001	0.000	0.001	-0.000	0.000	-0.000
755.00	0.000	0.002	0.001	0.000	0.001	-0.000	0.000	-0.000
756.00	0.000	0.002	0.001	0.000	0.001	0.000	0.000	-0.000
757.00	0.000	0.002	0.001	0.000	0.001	0.000	0.000	-0.000
758.00	0.000	0.002	0.001	0.000	0.001	-0.000	0.000	-0.000
759.00	0.000	0.002	0.001	0.000	0.001	0.000	0.000	0.000
760.00	0.001	0.003	0.002	0.001	0.002	0.001	0.001	0.001
761.00	0.000	0.002	0.001	0.000	0.001	0.000	0.000	0.000
762.00	-0.000	0.002	0.001	0.000	0.001	-0.000	-0.000	-0.000
763.00	-0.000	0.002	0.001	-0.000	0.001	-0.000	-0.000	-0.000
764.00	-0.000	0.002	0.001	0.000	0.001	-0.000	0.000	-0.000
765.00	-0.000	0.002	0.001	-0.000	0.001	-0.000	0.000	-0.000
766.00	-0.000	0.002	0.001	-0.000	0.001	-0.000	0.000	-0.000
767.00	0.000	0.002	0.001	-0.000	0.001	0.000	0.000	-0.000
768.00	0.000	0.002	0.001	0.000	0.001	0.000	0.000	-0.000
769.00	-0.000	0.002	0.001	0.000	0.001	0.000	0.000	-0.000
770.00	-0.000	0.002	0.001	0.000	0.001	-0.000	0.000	-0.000
771.00	-0.000	0.002	0.001	0.000	0.001	-0.000	-0.000	-0.000
772.00	-0.000	0.002	0.001	0.000	0.001	0.000	0.000	-0.000
773.00	-0.000	0.002	0.001	0.000	0.001	0.000	0.000	-0.000
774.00	-0.000	0.002	0.001	-0.000	0.000	-0.000	-0.000	-0.000
775.00	-0.000	0.002	0.001	-0.000	0.000	-0.000	0.000	-0.000
776.00	-0.000	0.002	0.001	-0.000	0.000	-0.000	0.000	-0.000
777.00	-0.000	0.002	0.001	0.000	0.001	0.000	0.000	-0.000
778.00	-0.000	0.002	0.001	0.000	0.001	0.000	0.000	0.000
779.00	-0.000	0.002	0.001	0.000	0.000	0.000	0.000	-0.000
780.00	-0.000	0.002	0.001	0.000	0.000	0.000	0.000	-0.000
781.00	-0.000	0.002	0.001	-0.000	0.000	0.000	0.000	-0.000
782.00	-0.000	0.002	0.001	0.000	0.001	0.000	0.000	-0.000
783.00	-0.000	0.002	0.001	0.000	0.001	0.000	0.000	-0.000
784.00	-0.000	0.002	0.001	0.000	0.001	-0.000	0.000	-0.000
785.00	-0.000	0.002	0.001	0.000	0.001	0.000	0.000	0.000
786.00	-0.000	0.002	0.001	0.000	0.001	0.000	0.000	0.000
787.00	-0.000	0.002	0.001	0.000	0.001	0.000	0.000	0.000
788.00	-0.000	0.002	0.001	0.000	0.001	0.000	0.000	-0.000
789.00	-0.000	0.002	0.001	0.000	0.001	0.000	0.000	-0.000
790.00	-0.000	0.002	0.001	0.000	0.001	0.000	0.000	-0.000
791.00	-0.000	0.002	0.001	0.000	0.001	0.000	0.000	-0.000
792.00	-0.000	0.002	0.001	0.000	0.001	0.000	0.000	-0.000
793.00	-0.000	0.002	0.001	0.000	0.001	0.000	0.000	-0.000
794.00	-0.000	0.002	0.001	0.000	0.000	0.000	0.000	-0.000
795.00	-0.000	0.002	0.001	-0.000	0.000	0.000	0.000	-0.000
796.00	-0.000	0.002	0.001	-0.000	0.001	0.000	0.000	-0.000
797.00	-0.000	0.002	0.001	-0.000	0.000	0.000	0.000	-0.000
798.00	-0.000	0.002	0.001	0.000	0.000	0.000	0.000	-0.000
799.00	-0.000	0.002	0.001	0.000	0.001	0.000	0.000	-0.000
800.00	-0.000	0.002	0.001	0.000	0.000	0.000	0.000	-0.000
801.00	-0.000	0.002	0.001	0.000	0.000	0.000	0.000	-0.000
802.00	-0.000	0.002	0.001	0.000	0.000	0.000	0.000	-0.000
803.00	-0.000	0.002	0.001	0.000	0.001	0.000	0.000	-0.000
804.00	-0.000	0.002	0.001	0.000	0.001	0.000	0.000	-0.000
805.00	-0.000	0.002	0.001	0.000	0.000	0.000	0.000	-0.000
806.00	-0.000	0.002	0.001	0.000	0.001	0.000	0.000	0.000
807.00	-0.000	0.002	0.001	0.000	0.001	0.000	0.000	-0.000
808.00	-0.000	0.002	0.001	0.000	0.001	0.000	0.000	-0.000
809.00	-0.000	0.002	0.001	0.000	0.001	0.000	0.000	-0.000
810.00	-0.000	0.002	0.001	0.000	0.001	0.000	0.000	0.000
811.00	-0.000	0.002	0.001	0.000	0.000	0.000	0.000	-0.000
812.00	-0.000	0.002	0.001	-0.000	0.000	-0.000	0.000	-0.000
813.00	-0.000	0.002	0.001	0.000	0.001	-0.000	0.000	-0.000
814.00	-0.000	0.002	0.001	0.000	0.001	0.000	0.000	-0.000
815.00	0.000	0.002	0.001	0.000	0.001	0.000	0.000	0.000
816.00	-0.000	0.002	0.001	0.000	0.001	0.000	0.000	-0.000
817.00	-0.000	0.002	0.001	0.000	0.000	-0.000	0.000	-0.000
818.00	-0.000	0.002	0.001	0.000	0.000	0.000	0.000	-0.000
819.00	-0.000	0.002	0.001	0.000	0.001	0.000	0.000	-0.000
820.00	-0.000	0.002	0.001	-0.000	0.000	-0.000	0.000	-0.000
821.00	-0.000	0.002	0.001	0.000	0.000	-0.000	0.000	-0.000
822.00	-0.000	0.002	0.001	0.000	0.000	-0.000	0.000	-0.000
823.00	-0.000	0.002	0.001	-0.000	0.000	-0.000	0.000	-0.000
824.00	-0.000	0.001	0.001	-0.000	0.000	-0.000	-0.000	-0.000
825.00	0.000	0.001	0.001	-0.000	0.000	-0.000	-0.000	-0.000
826.00	0.000	0.001	0.001	0.000	0.000	-0.000	-0.000	-0.000
827.00	0.000	0.002	0.001	0.000	0.001	-0.000	0.000	-0.000
828.00	0.000	0.002	0.001	0.000	0.001	-0.000	-0.000	-0.000
829.00	0.000	0.002	0.001	-0.000	0.000	-0.000	-0.000	-0.000
830.00	0.000	0.001	0.001	-0.000	0.000	-0.000	-0.000	-0.000
831.00	0.000	0.001	0.001	-0.000	0.000	-0.000	-0.000	-0.000
832.00	0.000	0.001	0.001	-0.000	0.000	-0.000	-0.000	-0.000
833.00	0.000	0.001	0.001	-0.000	0.000	-0.000	-0.000	-0.000
834.00	0.000	0.001	0.001	-0.000	0.000	-0.000	-0.000	-0.000
835.00	0.000	0.001	0.001	-0.000	0.000	-0.000	-0.000	-0.000
836.00	0.000	0.001	0.001	-0.000	0.000	-0.000	-0.000	-0.000
837.00	0.000	0.001	0.001	-0.000	0.000	-0.000	-0.000	-0.000
838.00	0.000	0.001	0.001	-0.000	0.000	-0.000	-0.000	-0.000
839.00	0.000	0.001	0.001	-0.000	0.000	-0.000	-0.000	-0.000
840.00	0.000	0.001	0.001	-0.000	0.000	-0.000	-0.000	-0.000
841.00	0.000	0.001	0.001	-0.000	0.000	-0.000	-0.000	-0.000
842.00	0.000	0.001	0.001	-0.000	0.000	-0.000	-0.000	-0.000
843.00	0.000	0.001	0.001	-0.000	0.000	-0.000	-0.000	-0.000
844.00	0.000	0.001	0.001	-0.000	0.000	-0.000	-0.000	-0.000
845.00	0.000	0.001	0.001	-0.000	0.000	-0.000	-0.000	-0.000
846.00	0.000	0.001	0.001	-0.000	0.000	-0.000	-0.000	-0.000
847.00	0.000	0.001	0.001	-0.000	0.000	-0.000	-0.000	-0.000
848.00	0.000	0.001	0.001	-0.000	0.000	-0.000	-0.000	-0.000
849.00	0.000	0.001	0.001	-0.000	0.000	-0.000	-0.000	-0.000
850.00	0.000	0.001	0.001	-0.000	0.000	-0.000	-0.000	-0.000
