Wavelength nm.,MilliQ,CC2_22may24_BOTr1,CC1_22may24_01r2,CS2_22may24_01r2,CP1_22may24_BOTr1,CC2_22may24_01r1,CC4_22may24_BOTr1,CP1_22may24_01r2,CP2_22may24_BOTr2,CC4_22may24_15r2,CC4_22may24_01r1,CC1_22may24_BOTr1,CP2_22may24_01r1,CS1_22may24_01r2
190,0.009,0.404,0.413,0.218,0.333,0.4,0.395,0.429,0.416,0.419,0.381,0.402,0.41,0.2
191,0.005,0.37,0.375,0.205,0.308,0.365,0.36,0.395,0.384,0.388,0.346,0.364,0.373,0.188
192,0.005,0.34,0.342,0.197,0.288,0.33,0.33,0.365,0.353,0.358,0.316,0.333,0.341,0.178
193,0.005,0.307,0.308,0.188,0.265,0.297,0.297,0.331,0.319,0.325,0.283,0.301,0.308,0.169
194,0.004,0.281,0.28,0.18,0.247,0.271,0.272,0.304,0.294,0.299,0.258,0.275,0.281,0.161
195,0.004,0.257,0.255,0.174,0.23,0.247,0.249,0.28,0.27,0.273,0.235,0.253,0.256,0.155
196,0.004,0.236,0.235,0.169,0.217,0.227,0.228,0.26,0.251,0.252,0.215,0.233,0.235,0.15
197,0.004,0.217,0.217,0.164,0.205,0.21,0.21,0.243,0.233,0.233,0.197,0.216,0.217,0.145
198,0.003,0.202,0.202,0.16,0.194,0.195,0.195,0.228,0.218,0.216,0.183,0.201,0.201,0.141
199,0.003,0.189,0.189,0.156,0.186,0.182,0.182,0.215,0.205,0.202,0.171,0.188,0.188,0.138
200,0.003,0.178,0.178,0.154,0.179,0.172,0.172,0.205,0.193,0.191,0.161,0.178,0.178,0.135
201,0.002,0.168,0.167,0.15,0.172,0.161,0.162,0.194,0.182,0.18,0.151,0.168,0.168,0.132
202,0.002,0.159,0.158,0.147,0.166,0.153,0.154,0.185,0.172,0.169,0.143,0.159,0.159,0.129
203,0.002,0.152,0.15,0.144,0.161,0.145,0.147,0.177,0.164,0.161,0.136,0.152,0.151,0.127
204,0.002,0.145,0.143,0.141,0.155,0.139,0.14,0.17,0.157,0.153,0.13,0.145,0.144,0.124
205,0.002,0.139,0.137,0.138,0.151,0.133,0.134,0.164,0.15,0.146,0.124,0.14,0.138,0.121
206,0.001,0.134,0.132,0.136,0.146,0.128,0.129,0.158,0.144,0.14,0.119,0.135,0.133,0.119
207,0.001,0.129,0.127,0.133,0.142,0.124,0.125,0.154,0.138,0.134,0.115,0.13,0.129,0.117
208,0.001,0.125,0.123,0.13,0.139,0.12,0.121,0.15,0.133,0.129,0.111,0.126,0.124,0.114
209,0.001,0.121,0.119,0.126,0.135,0.116,0.117,0.145,0.128,0.125,0.107,0.122,0.12,0.111
210,0.001,0.118,0.115,0.123,0.131,0.112,0.114,0.141,0.124,0.12,0.104,0.119,0.117,0.109
211,0.001,0.114,0.112,0.12,0.128,0.109,0.111,0.137,0.12,0.117,0.101,0.116,0.114,0.106
212,0.001,0.111,0.108,0.116,0.124,0.106,0.108,0.134,0.117,0.113,0.098,0.113,0.111,0.104
213,0.001,0.108,0.105,0.113,0.121,0.104,0.105,0.13,0.113,0.11,0.095,0.11,0.107,0.101
214,0.001,0.105,0.102,0.11,0.117,0.1,0.102,0.127,0.11,0.106,0.093,0.107,0.105,0.098
215,0,0.102,0.099,0.106,0.114,0.098,0.099,0.124,0.107,0.103,0.09,0.105,0.102,0.095
216,0,0.1,0.097,0.103,0.111,0.096,0.096,0.121,0.104,0.1,0.088,0.102,0.1,0.093
217,0,0.097,0.095,0.099,0.108,0.093,0.094,0.118,0.101,0.098,0.086,0.1,0.097,0.09
218,0,0.095,0.093,0.096,0.106,0.092,0.092,0.116,0.099,0.096,0.084,0.098,0.095,0.088
219,0,0.093,0.091,0.093,0.103,0.089,0.09,0.113,0.097,0.093,0.082,0.096,0.093,0.085
220,0,0.091,0.089,0.091,0.101,0.088,0.088,0.111,0.095,0.091,0.08,0.094,0.091,0.083
221,0,0.089,0.087,0.088,0.099,0.086,0.086,0.109,0.093,0.09,0.079,0.092,0.09,0.081
222,0.001,0.088,0.085,0.086,0.096,0.085,0.085,0.107,0.091,0.088,0.077,0.091,0.088,0.08
223,0.001,0.086,0.084,0.083,0.095,0.083,0.083,0.106,0.09,0.086,0.076,0.089,0.086,0.078
224,0.001,0.084,0.082,0.081,0.093,0.082,0.082,0.104,0.088,0.084,0.074,0.088,0.085,0.076
225,0.001,0.083,0.081,0.079,0.091,0.08,0.08,0.102,0.086,0.083,0.073,0.086,0.083,0.074
226,0.001,0.081,0.079,0.077,0.089,0.079,0.078,0.1,0.085,0.081,0.072,0.085,0.082,0.073
227,0,0.08,0.078,0.075,0.087,0.077,0.077,0.098,0.083,0.079,0.07,0.083,0.08,0.071
228,0,0.078,0.076,0.073,0.085,0.076,0.075,0.097,0.081,0.078,0.069,0.082,0.079,0.07
229,0,0.077,0.075,0.071,0.084,0.074,0.074,0.095,0.08,0.076,0.068,0.08,0.077,0.068
230,0,0.075,0.073,0.07,0.082,0.073,0.072,0.094,0.079,0.075,0.066,0.079,0.076,0.067
231,0,0.074,0.072,0.068,0.081,0.072,0.071,0.092,0.077,0.073,0.065,0.078,0.075,0.065
232,0,0.073,0.071,0.067,0.079,0.071,0.07,0.09,0.076,0.072,0.064,0.077,0.073,0.064
233,0,0.071,0.07,0.065,0.078,0.069,0.069,0.089,0.074,0.071,0.063,0.076,0.072,0.063
234,0,0.07,0.069,0.064,0.077,0.069,0.068,0.088,0.073,0.07,0.062,0.075,0.071,0.062
235,0,0.069,0.067,0.063,0.076,0.067,0.067,0.086,0.072,0.068,0.061,0.073,0.07,0.061
236,0,0.068,0.066,0.062,0.075,0.066,0.065,0.085,0.071,0.067,0.06,0.072,0.069,0.06
237,0,0.067,0.065,0.061,0.073,0.065,0.064,0.084,0.07,0.066,0.059,0.071,0.068,0.059
238,0,0.066,0.064,0.06,0.072,0.064,0.063,0.082,0.068,0.065,0.058,0.07,0.067,0.058
239,0,0.065,0.063,0.059,0.071,0.063,0.063,0.081,0.067,0.064,0.058,0.069,0.066,0.057
240,0,0.064,0.063,0.058,0.07,0.063,0.062,0.08,0.067,0.063,0.057,0.069,0.065,0.056
241,0,0.063,0.062,0.057,0.069,0.062,0.061,0.08,0.066,0.062,0.056,0.068,0.064,0.055
242,0,0.063,0.061,0.057,0.068,0.061,0.06,0.079,0.065,0.061,0.055,0.067,0.064,0.055
243,0,0.062,0.061,0.056,0.068,0.061,0.059,0.078,0.064,0.061,0.055,0.066,0.063,0.054
244,0,0.061,0.06,0.055,0.067,0.06,0.059,0.077,0.063,0.06,0.054,0.066,0.062,0.053
245,0,0.061,0.059,0.054,0.066,0.059,0.058,0.076,0.062,0.059,0.054,0.065,0.062,0.053
246,0,0.06,0.058,0.054,0.065,0.059,0.058,0.075,0.062,0.058,0.053,0.064,0.061,0.052
247,0,0.06,0.058,0.053,0.065,0.058,0.057,0.075,0.061,0.058,0.053,0.064,0.061,0.051
248,0,0.059,0.058,0.052,0.064,0.057,0.056,0.074,0.06,0.057,0.052,0.063,0.06,0.05
249,0,0.059,0.057,0.052,0.063,0.057,0.056,0.073,0.059,0.056,0.052,0.063,0.059,0.05
250,0,0.058,0.057,0.051,0.063,0.057,0.055,0.073,0.059,0.056,0.051,0.063,0.059,0.049
251,0,0.058,0.056,0.051,0.062,0.057,0.055,0.072,0.059,0.056,0.051,0.062,0.059,0.049
252,0,0.057,0.056,0.05,0.062,0.056,0.055,0.072,0.058,0.055,0.051,0.062,0.058,0.048
253,0,0.057,0.055,0.05,0.061,0.056,0.054,0.071,0.058,0.055,0.05,0.061,0.058,0.048
254,0,0.056,0.055,0.049,0.061,0.055,0.054,0.07,0.057,0.054,0.05,0.061,0.057,0.047
255,0,0.056,0.055,0.049,0.06,0.055,0.053,0.07,0.057,0.054,0.05,0.06,0.057,0.047
256,0,0.056,0.054,0.049,0.06,0.054,0.053,0.069,0.056,0.053,0.049,0.06,0.057,0.047
257,0,0.055,0.054,0.048,0.059,0.054,0.052,0.069,0.056,0.053,0.049,0.06,0.056,0.046
258,0,0.055,0.053,0.048,0.059,0.054,0.052,0.069,0.055,0.053,0.048,0.059,0.056,0.046
259,0,0.054,0.053,0.047,0.058,0.053,0.051,0.068,0.055,0.052,0.048,0.059,0.055,0.046
260,0,0.054,0.052,0.047,0.058,0.053,0.051,0.067,0.054,0.052,0.048,0.058,0.055,0.045
261,0,0.054,0.052,0.047,0.057,0.052,0.051,0.067,0.054,0.051,0.047,0.058,0.054,0.045
262,0,0.053,0.051,0.046,0.057,0.052,0.05,0.066,0.054,0.051,0.047,0.057,0.054,0.044
263,0,0.053,0.051,0.046,0.057,0.052,0.05,0.066,0.053,0.05,0.046,0.057,0.053,0.044
264,0,0.052,0.05,0.045,0.056,0.051,0.049,0.065,0.052,0.05,0.046,0.056,0.053,0.043
265,0,0.051,0.05,0.045,0.055,0.05,0.049,0.064,0.052,0.049,0.046,0.056,0.052,0.043
266,0,0.051,0.049,0.044,0.055,0.05,0.048,0.064,0.051,0.049,0.045,0.055,0.052,0.043
267,0,0.05,0.048,0.044,0.054,0.049,0.048,0.063,0.05,0.048,0.044,0.054,0.051,0.042
268,0,0.049,0.048,0.043,0.053,0.048,0.047,0.062,0.05,0.047,0.043,0.054,0.05,0.042
269,0,0.049,0.047,0.043,0.053,0.047,0.046,0.061,0.049,0.047,0.043,0.053,0.049,0.041
270,0,0.048,0.046,0.043,0.052,0.047,0.046,0.06,0.048,0.046,0.042,0.052,0.049,0.041
271,0,0.047,0.046,0.042,0.052,0.046,0.045,0.06,0.048,0.045,0.042,0.052,0.048,0.041
272,0,0.047,0.045,0.042,0.051,0.045,0.044,0.059,0.047,0.045,0.041,0.051,0.047,0.04
273,0,0.046,0.044,0.041,0.05,0.045,0.044,0.058,0.046,0.044,0.04,0.05,0.046,0.04
274,0,0.045,0.043,0.041,0.05,0.044,0.043,0.057,0.045,0.043,0.039,0.049,0.046,0.039
275,0,0.044,0.043,0.04,0.049,0.043,0.042,0.056,0.045,0.043,0.038,0.048,0.045,0.039
276,0,0.044,0.042,0.04,0.049,0.043,0.042,0.055,0.044,0.042,0.038,0.048,0.044,0.038
277,0,0.043,0.041,0.04,0.048,0.041,0.041,0.054,0.043,0.041,0.037,0.047,0.043,0.038
278,0,0.042,0.04,0.039,0.047,0.041,0.04,0.053,0.042,0.04,0.036,0.046,0.042,0.037
279,0,0.041,0.039,0.039,0.047,0.04,0.04,0.053,0.041,0.039,0.035,0.045,0.041,0.037
280,0,0.04,0.038,0.038,0.046,0.039,0.039,0.052,0.04,0.039,0.035,0.044,0.041,0.036
281,0,0.039,0.038,0.038,0.045,0.038,0.038,0.051,0.04,0.038,0.034,0.044,0.04,0.036
282,0,0.039,0.037,0.037,0.044,0.038,0.037,0.05,0.039,0.037,0.033,0.043,0.039,0.035
283,0,0.038,0.036,0.037,0.044,0.037,0.037,0.049,0.038,0.036,0.032,0.042,0.039,0.035
284,0,0.037,0.036,0.037,0.043,0.036,0.036,0.048,0.037,0.035,0.032,0.041,0.038,0.035
285,0,0.036,0.035,0.036,0.043,0.035,0.035,0.047,0.036,0.034,0.031,0.04,0.037,0.034
286,0,0.035,0.034,0.035,0.042,0.035,0.034,0.046,0.035,0.034,0.03,0.04,0.036,0.034
287,0,0.035,0.033,0.035,0.041,0.034,0.034,0.045,0.035,0.033,0.029,0.039,0.035,0.033
288,0,0.034,0.032,0.034,0.041,0.033,0.033,0.045,0.034,0.032,0.029,0.038,0.034,0.033
289,0,0.033,0.032,0.034,0.04,0.032,0.032,0.044,0.033,0.031,0.028,0.037,0.034,0.032
290,0,0.033,0.031,0.034,0.039,0.031,0.032,0.043,0.032,0.03,0.027,0.037,0.033,0.032
291,0,0.032,0.03,0.033,0.039,0.031,0.031,0.042,0.031,0.03,0.027,0.036,0.032,0.031
292,0,0.031,0.029,0.033,0.038,0.03,0.031,0.041,0.031,0.029,0.026,0.035,0.031,0.031
293,0,0.03,0.029,0.032,0.037,0.029,0.03,0.04,0.03,0.028,0.025,0.035,0.031,0.031
294,0,0.03,0.028,0.032,0.037,0.029,0.029,0.04,0.029,0.027,0.025,0.034,0.03,0.03
295,0,0.029,0.027,0.031,0.036,0.028,0.029,0.039,0.029,0.027,0.024,0.033,0.029,0.03
296,0,0.028,0.027,0.031,0.036,0.028,0.028,0.038,0.028,0.026,0.024,0.033,0.029,0.029
297,0,0.028,0.026,0.03,0.035,0.027,0.027,0.037,0.027,0.026,0.023,0.032,0.028,0.029
298,0,0.027,0.026,0.03,0.035,0.027,0.027,0.036,0.027,0.025,0.022,0.032,0.028,0.029
299,0,0.026,0.025,0.03,0.034,0.026,0.026,0.036,0.026,0.024,0.022,0.031,0.027,0.028
300,0,0.026,0.025,0.029,0.033,0.026,0.026,0.035,0.026,0.024,0.021,0.03,0.026,0.028
301,0,0.025,0.024,0.029,0.033,0.025,0.025,0.035,0.025,0.023,0.021,0.03,0.026,0.027
302,0,0.025,0.024,0.029,0.032,0.025,0.025,0.034,0.025,0.023,0.02,0.029,0.025,0.027
303,0,0.024,0.023,0.028,0.032,0.024,0.024,0.033,0.024,0.022,0.02,0.029,0.025,0.027
304,0,0.024,0.023,0.028,0.031,0.023,0.024,0.033,0.024,0.022,0.02,0.028,0.024,0.026
305,0,0.024,0.022,0.027,0.031,0.023,0.024,0.033,0.023,0.021,0.019,0.028,0.024,0.026
306,0,0.023,0.022,0.027,0.03,0.022,0.023,0.032,0.022,0.021,0.019,0.027,0.023,0.025
307,0,0.023,0.021,0.027,0.03,0.022,0.022,0.031,0.022,0.02,0.018,0.027,0.023,0.025
308,0,0.022,0.021,0.027,0.029,0.022,0.022,0.03,0.022,0.02,0.018,0.027,0.022,0.025
309,0,0.022,0.02,0.026,0.029,0.021,0.022,0.03,0.021,0.02,0.018,0.026,0.022,0.024
310,0,0.021,0.02,0.026,0.029,0.021,0.021,0.03,0.021,0.019,0.017,0.026,0.021,0.024
311,0,0.021,0.019,0.026,0.028,0.021,0.021,0.029,0.02,0.019,0.017,0.025,0.021,0.024
312,0,0.021,0.019,0.025,0.028,0.02,0.02,0.028,0.02,0.019,0.016,0.025,0.021,0.023
313,0,0.02,0.019,0.025,0.027,0.02,0.02,0.028,0.019,0.018,0.016,0.024,0.02,0.023
314,0,0.02,0.018,0.024,0.027,0.019,0.02,0.028,0.019,0.018,0.016,0.024,0.02,0.023
315,0,0.019,0.018,0.024,0.026,0.019,0.02,0.027,0.019,0.018,0.015,0.024,0.02,0.022
316,0,0.019,0.018,0.024,0.026,0.019,0.019,0.027,0.019,0.017,0.015,0.023,0.019,0.022
317,0,0.019,0.017,0.023,0.026,0.018,0.019,0.026,0.018,0.017,0.015,0.023,0.019,0.022
318,0,0.018,0.017,0.023,0.025,0.018,0.018,0.026,0.018,0.016,0.014,0.022,0.018,0.021
319,0,0.018,0.017,0.023,0.025,0.018,0.018,0.025,0.018,0.016,0.014,0.022,0.018,0.021
320,0,0.017,0.016,0.022,0.024,0.017,0.018,0.025,0.017,0.016,0.014,0.022,0.018,0.02
321,0,0.017,0.016,0.022,0.024,0.017,0.018,0.025,0.017,0.015,0.014,0.022,0.017,0.02
322,0,0.017,0.016,0.022,0.024,0.017,0.017,0.024,0.016,0.015,0.014,0.021,0.017,0.02
323,0,0.017,0.016,0.022,0.024,0.017,0.017,0.024,0.016,0.015,0.013,0.021,0.017,0.02
324,0,0.016,0.015,0.021,0.023,0.016,0.017,0.024,0.016,0.015,0.013,0.021,0.017,0.02
325,0,0.016,0.015,0.021,0.023,0.016,0.016,0.023,0.016,0.015,0.012,0.02,0.016,0.019
326,0,0.016,0.015,0.021,0.023,0.016,0.016,0.023,0.015,0.014,0.012,0.02,0.016,0.019
327,0,0.016,0.014,0.021,0.022,0.016,0.016,0.023,0.015,0.014,0.012,0.02,0.016,0.019
328,0,0.015,0.014,0.02,0.022,0.015,0.015,0.022,0.015,0.013,0.012,0.019,0.015,0.018
329,0,0.015,0.014,0.02,0.022,0.015,0.015,0.022,0.015,0.013,0.012,0.02,0.015,0.018
330,-0.001,0.015,0.014,0.02,0.021,0.015,0.015,0.021,0.014,0.013,0.012,0.019,0.015,0.018
331,0,0.015,0.014,0.02,0.021,0.015,0.015,0.021,0.014,0.013,0.011,0.019,0.015,0.018
332,0,0.014,0.013,0.02,0.021,0.014,0.015,0.021,0.014,0.013,0.011,0.019,0.014,0.018
333,0,0.014,0.013,0.019,0.02,0.014,0.015,0.021,0.014,0.013,0.011,0.019,0.015,0.017
334,0,0.014,0.013,0.019,0.02,0.014,0.014,0.02,0.014,0.012,0.011,0.018,0.014,0.017
335,0,0.014,0.013,0.019,0.02,0.014,0.014,0.02,0.013,0.012,0.011,0.018,0.014,0.017
336,0,0.013,0.012,0.019,0.02,0.014,0.014,0.019,0.013,0.012,0.01,0.018,0.014,0.016
337,0,0.013,0.012,0.018,0.019,0.014,0.014,0.019,0.013,0.012,0.01,0.017,0.013,0.016
338,0,0.013,0.012,0.018,0.019,0.013,0.013,0.019,0.012,0.011,0.01,0.017,0.013,0.016
339,0,0.013,0.012,0.018,0.019,0.014,0.014,0.019,0.013,0.012,0.01,0.017,0.013,0.016
340,0.001,0.014,0.013,0.019,0.02,0.014,0.014,0.019,0.013,0.012,0.011,0.018,0.014,0.017
341,0,0.013,0.012,0.017,0.018,0.013,0.013,0.018,0.012,0.011,0.01,0.017,0.013,0.016
342,0,0.012,0.012,0.017,0.018,0.013,0.013,0.018,0.011,0.011,0.01,0.017,0.012,0.015
343,0,0.012,0.011,0.017,0.018,0.013,0.012,0.017,0.011,0.01,0.009,0.016,0.012,0.015
344,0,0.012,0.011,0.016,0.017,0.012,0.012,0.017,0.011,0.01,0.009,0.016,0.012,0.015
345,0,0.011,0.01,0.016,0.017,0.012,0.012,0.017,0.011,0.01,0.009,0.016,0.011,0.015
346,0,0.011,0.01,0.016,0.017,0.012,0.011,0.016,0.011,0.01,0.008,0.015,0.011,0.014
347,0,0.011,0.01,0.016,0.017,0.012,0.012,0.016,0.011,0.01,0.008,0.016,0.011,0.014
348,0,0.011,0.01,0.016,0.016,0.011,0.011,0.016,0.01,0.009,0.008,0.015,0.011,0.014
349,0,0.011,0.01,0.016,0.016,0.011,0.011,0.015,0.01,0.009,0.008,0.015,0.011,0.013
350,0,0.01,0.01,0.015,0.016,0.011,0.011,0.015,0.01,0.009,0.008,0.014,0.01,0.013
351,0,0.01,0.009,0.015,0.016,0.011,0.01,0.015,0.009,0.009,0.008,0.015,0.01,0.013
352,0,0.01,0.009,0.015,0.015,0.011,0.01,0.015,0.009,0.009,0.007,0.015,0.01,0.013
353,0,0.01,0.009,0.015,0.015,0.01,0.01,0.015,0.009,0.009,0.007,0.014,0.01,0.013
354,0,0.01,0.009,0.014,0.015,0.01,0.01,0.015,0.009,0.008,0.007,0.014,0.01,0.012
355,-0.001,0.009,0.008,0.014,0.014,0.01,0.01,0.014,0.009,0.008,0.007,0.014,0.009,0.012
356,0,0.009,0.009,0.014,0.014,0.01,0.01,0.014,0.009,0.008,0.007,0.014,0.009,0.012
357,0,0.009,0.009,0.014,0.014,0.01,0.009,0.014,0.009,0.008,0.007,0.014,0.009,0.012
358,-0.001,0.009,0.008,0.013,0.014,0.01,0.009,0.013,0.008,0.008,0.006,0.013,0.009,0.011
359,0,0.009,0.008,0.013,0.014,0.009,0.009,0.013,0.008,0.008,0.006,0.013,0.009,0.011
360,0,0.009,0.008,0.013,0.014,0.009,0.009,0.013,0.008,0.008,0.006,0.013,0.009,0.011
361,0,0.008,0.008,0.013,0.013,0.009,0.009,0.013,0.008,0.007,0.006,0.013,0.008,0.011
362,0,0.008,0.008,0.013,0.013,0.009,0.009,0.013,0.008,0.007,0.006,0.013,0.008,0.011
363,0,0.008,0.008,0.013,0.013,0.009,0.008,0.012,0.008,0.007,0.006,0.013,0.008,0.011
364,0,0.008,0.008,0.013,0.013,0.009,0.008,0.012,0.007,0.007,0.006,0.013,0.008,0.011
365,0,0.008,0.007,0.012,0.013,0.009,0.008,0.012,0.007,0.007,0.006,0.012,0.008,0.01
366,0,0.008,0.007,0.012,0.013,0.009,0.008,0.012,0.007,0.007,0.006,0.012,0.008,0.01
367,0,0.008,0.007,0.012,0.012,0.009,0.008,0.012,0.007,0.007,0.005,0.012,0.008,0.01
368,0,0.007,0.007,0.012,0.012,0.008,0.008,0.011,0.007,0.007,0.005,0.012,0.007,0.01
369,0,0.007,0.007,0.012,0.012,0.008,0.008,0.011,0.007,0.006,0.005,0.012,0.007,0.01
370,0,0.007,0.007,0.011,0.011,0.008,0.007,0.011,0.007,0.006,0.005,0.012,0.007,0.009
371,0,0.007,0.007,0.011,0.011,0.008,0.007,0.011,0.007,0.006,0.005,0.012,0.007,0.009
372,0,0.007,0.007,0.011,0.011,0.008,0.007,0.011,0.007,0.006,0.005,0.011,0.007,0.009
373,0,0.007,0.007,0.011,0.011,0.008,0.007,0.011,0.007,0.006,0.005,0.011,0.007,0.009
374,0,0.007,0.006,0.011,0.011,0.008,0.007,0.01,0.006,0.006,0.005,0.011,0.007,0.009
375,0,0.007,0.006,0.011,0.011,0.008,0.007,0.01,0.006,0.006,0.005,0.011,0.007,0.009
376,0,0.006,0.006,0.011,0.01,0.007,0.007,0.01,0.006,0.006,0.004,0.011,0.006,0.008
377,0,0.006,0.006,0.011,0.01,0.007,0.007,0.01,0.006,0.005,0.004,0.011,0.007,0.008
378,0,0.006,0.006,0.01,0.01,0.007,0.007,0.01,0.006,0.006,0.004,0.011,0.007,0.009
379,0,0.006,0.006,0.01,0.01,0.007,0.007,0.01,0.006,0.006,0.004,0.011,0.006,0.008
380,0,0.006,0.006,0.01,0.01,0.007,0.007,0.01,0.006,0.005,0.004,0.01,0.006,0.008
381,0,0.006,0.006,0.01,0.01,0.007,0.006,0.01,0.006,0.005,0.004,0.01,0.006,0.008
382,0,0.006,0.006,0.01,0.01,0.007,0.006,0.009,0.005,0.005,0.004,0.01,0.006,0.008
383,0,0.006,0.006,0.01,0.01,0.007,0.006,0.009,0.005,0.005,0.004,0.01,0.006,0.008
384,0,0.006,0.006,0.01,0.01,0.007,0.006,0.009,0.005,0.005,0.004,0.01,0.006,0.008
385,0,0.006,0.005,0.01,0.009,0.007,0.006,0.009,0.005,0.005,0.004,0.01,0.006,0.008
386,0,0.006,0.005,0.01,0.009,0.007,0.006,0.009,0.005,0.005,0.004,0.01,0.006,0.007
387,0,0.005,0.005,0.01,0.009,0.007,0.006,0.008,0.005,0.005,0.004,0.01,0.006,0.007
388,0,0.005,0.005,0.009,0.009,0.006,0.006,0.008,0.005,0.005,0.004,0.01,0.005,0.007
389,0,0.005,0.005,0.009,0.009,0.006,0.005,0.008,0.005,0.004,0.004,0.01,0.005,0.007
390,0,0.005,0.005,0.009,0.009,0.006,0.005,0.008,0.005,0.004,0.004,0.009,0.005,0.007
391,0,0.005,0.005,0.009,0.009,0.006,0.005,0.008,0.005,0.004,0.004,0.009,0.005,0.007
392,0,0.005,0.005,0.009,0.008,0.006,0.005,0.008,0.004,0.004,0.003,0.009,0.005,0.007
393,0,0.005,0.005,0.009,0.008,0.006,0.005,0.008,0.004,0.004,0.003,0.009,0.005,0.007
394,0,0.005,0.005,0.008,0.008,0.006,0.005,0.007,0.004,0.004,0.003,0.009,0.005,0.007
395,0,0.005,0.005,0.008,0.008,0.006,0.005,0.008,0.004,0.004,0.003,0.009,0.005,0.006
396,0,0.005,0.004,0.008,0.008,0.006,0.005,0.007,0.004,0.004,0.003,0.009,0.004,0.006
397,0,0.004,0.004,0.008,0.008,0.006,0.005,0.007,0.004,0.004,0.003,0.009,0.004,0.006
398,0,0.004,0.004,0.008,0.008,0.006,0.005,0.007,0.004,0.004,0.003,0.009,0.004,0.006
399,0,0.004,0.004,0.008,0.008,0.005,0.005,0.007,0.004,0.004,0.003,0.009,0.004,0.006
400,0,0.004,0.004,0.008,0.008,0.005,0.004,0.007,0.004,0.004,0.003,0.008,0.004,0.006
401,0,0.004,0.004,0.008,0.007,0.005,0.004,0.007,0.004,0.004,0.003,0.008,0.004,0.006
402,0,0.004,0.004,0.008,0.007,0.005,0.004,0.007,0.004,0.004,0.003,0.008,0.004,0.006
403,0,0.004,0.004,0.008,0.007,0.005,0.004,0.006,0.004,0.004,0.003,0.008,0.004,0.005
404,0,0.004,0.004,0.008,0.007,0.005,0.004,0.006,0.003,0.004,0.003,0.008,0.004,0.005
405,0,0.004,0.004,0.007,0.007,0.005,0.004,0.006,0.003,0.003,0.003,0.008,0.004,0.005
406,0,0.004,0.004,0.007,0.007,0.005,0.004,0.006,0.003,0.003,0.003,0.008,0.004,0.005
407,0,0.004,0.004,0.007,0.007,0.005,0.004,0.006,0.003,0.003,0.002,0.008,0.004,0.005
408,0,0.004,0.004,0.007,0.007,0.005,0.004,0.006,0.003,0.003,0.002,0.008,0.004,0.005
409,0,0.003,0.004,0.007,0.007,0.005,0.004,0.006,0.003,0.003,0.002,0.008,0.003,0.005
410,0,0.003,0.003,0.007,0.007,0.005,0.004,0.006,0.003,0.003,0.002,0.008,0.003,0.005
411,0,0.003,0.003,0.007,0.007,0.005,0.004,0.006,0.003,0.003,0.002,0.008,0.003,0.005
412,0,0.003,0.003,0.007,0.006,0.005,0.004,0.006,0.003,0.003,0.002,0.008,0.003,0.005
413,0,0.003,0.003,0.007,0.006,0.005,0.004,0.006,0.003,0.003,0.002,0.008,0.003,0.005
414,0,0.003,0.003,0.007,0.006,0.004,0.004,0.005,0.003,0.003,0.002,0.007,0.003,0.005
415,0,0.003,0.003,0.007,0.006,0.004,0.004,0.005,0.003,0.003,0.002,0.007,0.003,0.005
416,0,0.003,0.003,0.007,0.006,0.004,0.003,0.005,0.003,0.003,0.002,0.007,0.003,0.005
417,0,0.003,0.003,0.006,0.006,0.004,0.003,0.005,0.003,0.003,0.002,0.007,0.003,0.004
418,0,0.003,0.003,0.006,0.006,0.004,0.003,0.005,0.003,0.003,0.002,0.007,0.003,0.004
419,0,0.003,0.003,0.006,0.006,0.004,0.003,0.005,0.003,0.003,0.002,0.007,0.003,0.004
420,0,0.003,0.003,0.006,0.006,0.004,0.003,0.005,0.003,0.003,0.002,0.007,0.003,0.004
421,0,0.003,0.003,0.006,0.005,0.004,0.003,0.005,0.002,0.002,0.002,0.007,0.003,0.004
422,0,0.003,0.003,0.006,0.005,0.004,0.003,0.005,0.002,0.002,0.002,0.007,0.003,0.004
423,0,0.003,0.003,0.006,0.005,0.004,0.003,0.005,0.003,0.002,0.002,0.007,0.003,0.004
424,0,0.003,0.003,0.006,0.005,0.004,0.003,0.005,0.003,0.002,0.002,0.007,0.003,0.004
425,0,0.002,0.003,0.006,0.005,0.004,0.003,0.005,0.002,0.002,0.002,0.007,0.003,0.004
426,0,0.002,0.003,0.006,0.005,0.004,0.003,0.004,0.002,0.002,0.001,0.007,0.002,0.004
427,0,0.002,0.003,0.006,0.005,0.004,0.003,0.004,0.002,0.002,0.002,0.007,0.002,0.004
428,0,0.002,0.003,0.006,0.005,0.004,0.003,0.004,0.002,0.002,0.001,0.007,0.002,0.004
429,0,0.002,0.003,0.005,0.005,0.004,0.003,0.004,0.002,0.002,0.001,0.007,0.002,0.004
430,0,0.002,0.002,0.005,0.005,0.004,0.003,0.004,0.002,0.002,0.001,0.006,0.002,0.003
431,0,0.002,0.002,0.005,0.005,0.004,0.003,0.004,0.002,0.002,0.001,0.006,0.002,0.003
432,0,0.002,0.002,0.005,0.005,0.004,0.003,0.004,0.002,0.002,0.001,0.006,0.002,0.003
433,0,0.002,0.002,0.005,0.005,0.003,0.002,0.004,0.002,0.002,0.001,0.006,0.002,0.003
434,0,0.002,0.002,0.005,0.005,0.004,0.002,0.004,0.002,0.002,0.001,0.006,0.002,0.003
435,0,0.002,0.002,0.005,0.005,0.003,0.002,0.004,0.002,0.002,0.001,0.006,0.002,0.003
436,0,0.002,0.002,0.005,0.005,0.003,0.002,0.004,0.002,0.002,0.001,0.006,0.002,0.003
437,0,0.002,0.002,0.005,0.005,0.003,0.002,0.004,0.002,0.002,0.001,0.006,0.002,0.003
438,0,0.002,0.002,0.005,0.004,0.003,0.002,0.004,0.002,0.002,0.001,0.006,0.002,0.003
439,0,0.002,0.002,0.005,0.004,0.003,0.002,0.004,0.002,0.002,0.001,0.006,0.002,0.003
440,0,0.002,0.002,0.005,0.004,0.003,0.002,0.003,0.002,0.002,0.001,0.006,0.002,0.003
441,0,0.002,0.002,0.005,0.004,0.003,0.002,0.003,0.001,0.002,0.001,0.006,0.002,0.003
442,0,0.002,0.002,0.005,0.004,0.003,0.002,0.003,0.002,0.002,0.001,0.006,0.002,0.003
443,0,0.002,0.002,0.005,0.004,0.003,0.002,0.003,0.001,0.002,0.001,0.006,0.002,0.003
444,0,0.002,0.002,0.005,0.004,0.003,0.002,0.003,0.002,0.002,0.001,0.006,0.002,0.003
445,0,0.002,0.002,0.005,0.004,0.003,0.002,0.003,0.001,0.002,0.001,0.006,0.002,0.003
446,0,0.002,0.002,0.005,0.004,0.003,0.002,0.003,0.001,0.002,0.001,0.006,0.002,0.003
447,0,0.002,0.002,0.005,0.004,0.003,0.002,0.003,0.001,0.002,0.001,0.006,0.002,0.003
448,0,0.002,0.002,0.005,0.004,0.003,0.002,0.003,0.001,0.001,0.001,0.006,0.002,0.003
449,0,0.002,0.002,0.005,0.004,0.003,0.002,0.003,0.001,0.002,0.001,0.006,0.002,0.003
450,0,0.002,0.002,0.004,0.004,0.003,0.002,0.003,0.001,0.002,0.001,0.006,0.002,0.003
451,0,0.002,0.002,0.004,0.004,0.003,0.002,0.003,0.001,0.002,0.001,0.006,0.002,0.002
452,0,0.001,0.002,0.004,0.004,0.003,0.002,0.003,0.001,0.002,0.001,0.006,0.002,0.002
453,0,0.001,0.002,0.004,0.004,0.003,0.002,0.003,0.001,0.001,0.001,0.005,0.002,0.002
454,0,0.001,0.002,0.004,0.004,0.003,0.002,0.003,0.001,0.001,0.001,0.005,0.002,0.002
455,0,0.001,0.002,0.004,0.004,0.003,0.002,0.003,0.001,0.001,0.001,0.005,0.001,0.002
456,0,0.001,0.002,0.004,0.004,0.003,0.002,0.003,0.001,0.001,0.001,0.005,0.001,0.002
457,0,0.001,0.002,0.004,0.004,0.003,0.002,0.003,0.001,0.001,0.001,0.005,0.001,0.002
458,0,0.001,0.002,0.004,0.004,0.003,0.002,0.003,0.001,0.001,0.001,0.006,0.001,0.002
459,0,0.001,0.002,0.004,0.003,0.003,0.002,0.003,0.001,0.001,0.001,0.005,0.002,0.002
460,0,0.001,0.002,0.004,0.004,0.003,0.002,0.003,0.001,0.001,0.001,0.005,0.002,0.002
461,0,0.001,0.002,0.004,0.003,0.003,0.002,0.003,0.001,0.001,0.001,0.005,0.001,0.002
462,0,0.001,0.002,0.004,0.003,0.003,0.002,0.003,0.001,0.001,0.001,0.005,0.001,0.002
463,0,0.001,0.002,0.004,0.003,0.003,0.002,0.003,0.001,0.001,0.001,0.005,0.001,0.002
464,0,0.001,0.002,0.004,0.003,0.003,0.002,0.003,0.001,0.001,0.001,0.005,0.001,0.002
465,0,0.001,0.002,0.004,0.003,0.003,0.002,0.003,0.001,0.001,0.001,0.005,0.001,0.002
466,0,0.001,0.002,0.004,0.003,0.003,0.002,0.003,0.001,0.001,0.001,0.005,0.001,0.002
467,0,0.001,0.002,0.004,0.003,0.003,0.002,0.003,0.001,0.001,0.001,0.005,0.001,0.002
468,0,0.001,0.002,0.004,0.003,0.003,0.002,0.003,0.001,0.001,0.001,0.005,0.001,0.002
469,0,0.001,0.002,0.004,0.003,0.003,0.001,0.002,0.001,0.001,0.001,0.005,0.001,0.002
470,0,0.001,0.002,0.004,0.003,0.002,0.001,0.002,0.001,0.001,0.001,0.005,0.001,0.002
471,0,0.001,0.002,0.004,0.003,0.003,0.001,0.002,0.001,0.001,0.001,0.005,0.001,0.002
472,0,0.001,0.002,0.004,0.003,0.003,0.001,0.002,0.001,0.001,0.001,0.005,0.001,0.002
473,0,0.001,0.002,0.004,0.003,0.003,0.001,0.002,0.001,0.001,0.001,0.005,0.001,0.002
474,0,0.001,0.002,0.004,0.003,0.003,0.001,0.002,0.001,0.001,0.001,0.005,0.001,0.002
475,0,0.001,0.002,0.004,0.003,0.003,0.001,0.002,0.001,0.001,0.001,0.005,0.001,0.002
476,0,0.001,0.002,0.004,0.003,0.003,0.001,0.002,0.001,0.001,0.001,0.005,0.001,0.002
477,0,0.001,0.002,0.004,0.003,0.002,0.001,0.002,0.001,0.001,0.001,0.005,0.001,0.002
478,0,0.001,0.001,0.004,0.003,0.002,0.001,0.002,0.001,0.001,0.001,0.005,0.001,0.002
479,0,0.001,0.001,0.004,0.003,0.002,0.001,0.002,0.001,0.001,0.001,0.005,0.001,0.002
480,0,0.001,0.002,0.004,0.003,0.002,0.001,0.002,0.001,0.001,0.001,0.005,0.001,0.002
481,0,0.001,0.001,0.003,0.003,0.002,0.001,0.002,0.001,0.001,0.001,0.005,0.001,0.002
482,0,0.001,0.001,0.003,0.003,0.002,0.001,0.002,0.001,0.001,0,0.005,0.001,0.002
483,0,0.001,0.001,0.003,0.003,0.002,0.001,0.002,0.001,0.001,0.001,0.005,0.001,0.002
484,0,0.001,0.001,0.003,0.003,0.002,0.001,0.002,0.001,0.001,0.001,0.005,0.001,0.002
485,0,0.001,0.001,0.003,0.003,0.002,0.001,0.002,0.001,0.001,0,0.005,0.001,0.001
486,0,0.001,0.001,0.003,0.003,0.002,0.001,0.002,0.001,0.001,0,0.005,0.001,0.001
487,0,0.001,0.001,0.003,0.003,0.002,0.001,0.002,0.001,0.001,0,0.005,0.001,0.001
488,0,0.001,0.001,0.003,0.003,0.002,0.001,0.002,0,0.001,0,0.004,0.001,0.001
489,0,0.001,0.001,0.003,0.003,0.002,0.001,0.002,0,0.001,0,0.004,0.001,0.001
490,0,0.001,0.001,0.003,0.003,0.002,0.001,0.002,0.001,0.001,0,0.004,0.001,0.001
491,0,0.001,0.001,0.003,0.003,0.002,0.001,0.002,0,0.001,0,0.004,0.001,0.001
492,0,0.001,0.001,0.003,0.003,0.002,0.001,0.002,0,0.001,0,0.004,0.001,0.001
493,0,0.001,0.001,0.003,0.002,0.002,0.001,0.002,0,0.001,0,0.004,0.001,0.001
494,0,0.001,0.001,0.003,0.002,0.002,0.001,0.002,0,0.001,0,0.004,0.001,0.001
495,0,0.001,0.001,0.003,0.002,0.002,0.001,0.002,0,0.001,0,0.004,0.001,0.001
496,0,0.001,0.001,0.003,0.002,0.002,0.001,0.002,0,0.001,0,0.004,0.001,0.001
497,0,0.001,0.001,0.003,0.002,0.002,0.001,0.002,0,0.001,0,0.004,0.001,0.001
498,0,0.001,0.001,0.003,0.002,0.002,0.001,0.002,0,0.001,0,0.004,0.001,0.001
499,0,0.001,0.001,0.003,0.002,0.002,0.001,0.002,0,0.001,0,0.004,0.001,0.001
500,0,0.001,0.001,0.003,0.002,0.002,0.001,0.002,0,0.001,0,0.004,0.001,0.001
501,0,0.001,0.001,0.003,0.002,0.002,0.001,0.002,0,0.001,0,0.004,0.001,0.001
502,0,0.001,0.001,0.003,0.002,0.002,0.001,0.002,0,0.001,0,0.004,0.001,0.001
503,0,0,0.001,0.003,0.002,0.002,0.001,0.001,0,0.001,0,0.004,0.001,0.001
504,0,0.001,0.001,0.003,0.002,0.002,0.001,0.001,0,0.001,0,0.004,0.001,0.001
505,0,0,0.001,0.003,0.002,0.002,0.001,0.001,0,0.001,0,0.004,0.001,0.001
506,0,0,0.001,0.003,0.002,0.002,0.001,0.001,0,0.001,0,0.004,0.001,0.001
507,0,0,0.001,0.003,0.002,0.002,0.001,0.001,0,0.001,0,0.004,0.001,0.001
508,0,0,0.001,0.003,0.002,0.002,0.001,0.001,0,0.001,0,0.004,0.001,0.001
509,0,0,0.001,0.003,0.002,0.002,0.001,0.001,0,0.001,0,0.004,0.001,0.001
510,0,0,0.001,0.003,0.002,0.002,0.001,0.001,0,0.001,0,0.004,0.001,0.001
511,0,0,0.001,0.003,0.002,0.002,0.001,0.001,0,0.001,0,0.004,0,0.001
512,0,0,0.001,0.003,0.002,0.002,0.001,0.001,0,0.001,0,0.004,0,0.001
513,0,0,0.001,0.003,0.002,0.002,0.001,0.001,0,0,0,0.004,0.001,0.001
514,0,0,0.001,0.003,0.002,0.002,0.001,0.001,0,0,0,0.004,0,0.001
515,0,0,0.001,0.003,0.002,0.002,0.001,0.001,0,0,0,0.004,0,0.001
516,0,0,0.001,0.002,0.002,0.002,0.001,0.001,0,0,0,0.004,0,0.001
517,-0.001,0,0.001,0.002,0.002,0.002,0.001,0.001,0,0,0,0.004,0,0.001
518,-0.001,0,0.001,0.002,0.002,0.002,0,0.001,0,0,0,0.004,0,0.001
519,-0.001,0,0.001,0.002,0.002,0.002,0,0.001,0,0,0,0.004,0,0.001
520,0,0,0.001,0.002,0.002,0.002,0.001,0.001,0,0,0,0.004,0,0.001
521,0,0,0.001,0.002,0.002,0.002,0.001,0.001,0,0,0,0.004,0,0.001
522,0,0,0.001,0.002,0.002,0.002,0,0.001,0,0,0,0.004,0,0.001
523,-0.001,0,0.001,0.002,0.002,0.001,0,0.001,0,0,0,0.004,0,0.001
524,-0.001,0,0.001,0.002,0.002,0.001,0,0.001,0,0,0,0.004,0,0.001
525,0,0,0.001,0.002,0.002,0.002,0,0.001,0,0,0,0.004,0,0.001
526,0,0,0.001,0.002,0.002,0.002,0.001,0.001,0,0,0,0.004,0,0.001
527,0,0,0.001,0.002,0.002,0.002,0,0.001,0,0,0,0.004,0,0.001
528,0,0,0.001,0.002,0.002,0.001,0,0.001,0,0,0,0.004,0,0.001
529,0,0,0.001,0.002,0.002,0.001,0,0.001,0,0,0,0.004,0,0.001
530,0,0,0.001,0.002,0.002,0.002,0,0.001,0,0,0,0.004,0,0.001
531,0,0,0.001,0.002,0.002,0.002,0,0.001,0,0,0,0.004,0,0.001
532,0,0,0.001,0.002,0.002,0.001,0,0.001,0,0,0,0.004,0,0.001
533,0,0,0.001,0.002,0.002,0.002,0,0.001,0,0,0,0.004,0,0.001
534,0,0,0.001,0.002,0.002,0.002,0,0.001,0,0,0,0.004,0,0.001
535,0,0,0.001,0.002,0.002,0.002,0.001,0.001,0,0.001,0,0.004,0,0.001
536,0.001,0.001,0.002,0.003,0.003,0.003,0.001,0.002,0.001,0.001,0.001,0.005,0.001,0.002
537,0,0,0.001,0.002,0.002,0.002,0.001,0.001,0,0,0,0.004,0,0.001
538,0,0,0.001,0.002,0.001,0.001,0,0.001,0,0,0,0.003,0,0
539,0,0,0.001,0.002,0.001,0.001,0,0.001,0,0,0,0.003,0,0
540,0,0,0.001,0.002,0.001,0.001,0,0.001,0,0,0,0.003,0,0
541,0,0,0.001,0.002,0.001,0.002,0,0.001,0,0,0,0.003,0,0
542,0,0,0.001,0.002,0.001,0.002,0,0.001,0,0,0,0.003,0,0
543,0,0,0.001,0.002,0.001,0.001,0,0.001,0,0,0,0.003,0,0
544,0,0,0.001,0.002,0.002,0.001,0,0.001,0,0,0,0.003,0,0.001
545,0,0,0.001,0.002,0.002,0.002,0,0.001,0,0,0,0.003,0,0
546,0,0,0.001,0.002,0.001,0.001,0,0.001,0,0,0,0.003,0,0
547,0,0,0.001,0.002,0.001,0.001,0,0.001,0,0,0,0.003,0,0
548,0,0,0.001,0.002,0.002,0.001,0,0.001,0,0,0,0.003,0,0
549,0,0,0.001,0.002,0.001,0.001,0,0.001,0,0,0,0.003,0,0
550,0,0,0.001,0.002,0.001,0.001,0,0.001,0,0,0,0.003,0,0
551,0,0,0.001,0.002,0.001,0.001,0,0.001,0,0,0,0.003,0,0
552,0,0,0.001,0.002,0.001,0.001,0,0.001,0,0,0,0.003,0,0
553,0,0,0.001,0.002,0.001,0.001,0,0.001,0,0,0,0.003,0,0.001
554,0,0,0.001,0.002,0.001,0.001,0,0.001,0,0,0,0.003,0,0
555,0,0,0.001,0.002,0.001,0.002,0,0.001,0,0,0,0.003,0,0.001
556,0,0,0.001,0.002,0.001,0.001,0,0.001,0,0,0,0.003,0,0
557,0,0,0.001,0.002,0.001,0.001,0,0.001,0,0,0,0.003,0,0
558,0,0,0.001,0.002,0.001,0.002,0,0.001,0,0,0,0.003,0,0.001
559,0,0,0.001,0.002,0.002,0.001,0,0.001,0,0,0,0.003,0,0
560,0,0,0.001,0.002,0.001,0.001,0,0.001,0,0,0,0.003,0,0
561,0,0,0.001,0.002,0.001,0.001,0,0.001,0,0,0,0.003,0,0
562,0,0,0.001,0.002,0.001,0.001,0,0.001,0,0,0,0.003,0,0
563,0,0,0.001,0.002,0.001,0.001,0,0.001,0,0,0,0.003,0,0
564,0,0,0.001,0.002,0.001,0.001,0,0.001,0,0,0,0.003,0,0
565,0,0,0.001,0.002,0.001,0.001,0,0.001,0,0,0,0.003,0,0
566,0,0,0.001,0.002,0.001,0.001,0,0.001,0,0,0,0.003,0,0.001
567,0,0,0.001,0.002,0.001,0.001,0,0.001,0,0,0,0.003,0,0.001
568,0,0,0.001,0.002,0.001,0.001,0,0.001,0,0,0,0.003,0,0.001
569,0,0,0.001,0.002,0.001,0.001,0,0.001,0,0,0,0.003,0,0.001
570,0,0,0.001,0.002,0.001,0.001,0,0.001,0,0,0,0.003,0,0.001
571,0,0,0.001,0.002,0.001,0.001,0,0.001,0,0,0,0.003,0,0.001
572,0,0,0.001,0.002,0.001,0.001,0,0.001,0,0,0,0.003,0,0.001
573,0,0,0.001,0.002,0.001,0.001,0,0.001,0,0,0,0.003,0,0.001
574,0,0,0.001,0.002,0.001,0.001,0,0.001,0,0,0,0.003,0,0.001
575,0,0,0.001,0.002,0.001,0.001,0,0.001,0,0,0,0.003,0,0.001
576,0,0,0.001,0.002,0.001,0.001,0,0.001,0,0,0,0.003,0,0.001
577,0,0,0.001,0.002,0.001,0.001,0,0.001,0,0,0,0.003,0,0.001
578,0,0,0.001,0.002,0.001,0.001,0,0.001,0,0,0,0.003,0,0.001
579,0,0,0.001,0.002,0.001,0.001,0,0.001,0,0,0,0.003,0,0.001
580,0,0,0.001,0.002,0.001,0.001,0,0.001,0,0,0,0.003,0,0.001
581,0,0,0.001,0.002,0.001,0.001,0,0.001,0,0,0,0.003,0,0.001
582,0,0,0.001,0.002,0.001,0.001,0,0.001,0,0,0,0.003,0,0.001
583,0,0,0.001,0.002,0.001,0.001,0,0.001,0,0,0,0.003,0,0.001
584,0,0,0.001,0.002,0.001,0.001,0,0.001,0,0,0,0.003,0,0.001
585,0,0,0.001,0.002,0.001,0.001,0,0.001,0,0,0,0.003,0,0.001
586,0,0,0.001,0.002,0.001,0.001,0,0.001,0,0,0,0.003,0,0.001
587,0,0,0.001,0.002,0.001,0.001,0,0.001,0,0,0,0.003,0,0.001
588,0,0,0.001,0.002,0.001,0.001,0,0.001,0,0,0,0.003,0,0
589,0,0,0.001,0.002,0.001,0.001,0,0.001,0,0,0,0.003,0,0
590,0,0,0.001,0.002,0.001,0.001,0,0.001,0,0,0,0.003,0,0
591,0,0,0.001,0.002,0.001,0.001,0,0.001,0,0,0,0.003,0,0
592,0,0,0.001,0.002,0.001,0.001,0,0.001,0,0,0,0.003,0,0
593,0,0,0.001,0.002,0.001,0.001,0,0.001,0,0,0,0.003,0,0
594,0,0,0.001,0.002,0.001,0.001,0,0.001,0,0,0,0.003,0,0
595,0,0,0.001,0.002,0.001,0.001,0,0.001,0,0,0,0.003,0,0.001
596,0,0,0.001,0.002,0.001,0.001,0,0.001,0,0,0,0.003,0,0
597,0,0,0.001,0.002,0.001,0.001,0,0.001,0,0,0,0.003,0,0
598,0,0,0.001,0.002,0.001,0.001,0,0.001,0,0,0,0.003,0,0
599,0,0,0.001,0.002,0.001,0.001,0,0.001,0,0,0,0.003,0,0
600,0,0,0.001,0.002,0.001,0.001,0,0.001,0,0,0,0.003,0,0
601,0,0,0.001,0.002,0.001,0.001,0,0.001,0,0,0,0.003,0,0
602,0,0,0.001,0.002,0.001,0.001,0,0.001,0,0,0,0.003,0,0
603,0,0,0.001,0.002,0.001,0.001,0,0.001,0,0,0,0.003,0,0
604,0,0,0.001,0.002,0.001,0.001,0,0.001,0,0,0,0.003,0,0
605,0,0,0.001,0.002,0.001,0.001,0,0.001,0,0,0,0.003,0,0
606,0,0,0.001,0.002,0.001,0.001,0,0.001,0,0,0,0.003,0,0
607,0,0,0.001,0.002,0.001,0.001,0,0.001,0,0,0,0.003,0,0
608,0,0,0.001,0.002,0.001,0.001,0,0,0,0,0,0.003,0,0
609,0,0,0.001,0.002,0.001,0.001,0,0,0,0,0,0.003,0,0
610,0,0,0.001,0.002,0.001,0.001,0,0,0,0,0,0.003,0,0
611,0,0,0.001,0.002,0.001,0.001,0,0,0,0,0,0.003,0,0
612,0,0,0.001,0.002,0.001,0.001,0,0,0,0,0,0.003,0,0
613,0,0,0.001,0.002,0.001,0.001,0,0,0,0,0,0.003,0,0
614,0,0,0.001,0.001,0.001,0.001,0,0,0,0,0,0.003,0,0
615,0,0,0.001,0.002,0.001,0.001,0,0,0,0,0,0.003,0,0
616,0,0,0.001,0.002,0.001,0.001,0,0,0,0,0,0.003,0,0
617,0,0,0.001,0.002,0.001,0.001,0,0,0,0,0,0.003,0,0
618,0,0,0.001,0.002,0.001,0.001,0,0,0,0,0,0.003,0,0
619,0,0,0.001,0.001,0.001,0.001,0,0,0,0,0,0.003,0,0
620,0,0,0.001,0.001,0.001,0.001,0,0,0,0,0,0.003,0,0
621,0,0,0.001,0.001,0.001,0.001,0,0,0,0,0,0.003,0,0
622,0,0,0.001,0.001,0.001,0.001,0,0,0,0,0,0.003,0,0
623,0,0,0.001,0.001,0.001,0.001,0,0,0,0,0,0.003,0,0
624,0,0,0.001,0.001,0.001,0.001,0,0,0,0,0,0.003,0,0
625,0,0,0.001,0.001,0.001,0.001,0,0,0,0,0,0.003,0,0
626,0,0,0.001,0.001,0.001,0.001,0,0,0,0,0,0.003,0,0
627,0,0,0.001,0.001,0.001,0.001,0,0,0,0,0,0.003,0,0
628,0,0,0,0.001,0.001,0.001,0,0,0,0,0,0.003,0,0
629,0,0,0.001,0.001,0.001,0.001,0,0,0,0,0,0.003,0,0
630,0,0,0.001,0.001,0.001,0.001,0,0,0,0,0,0.003,0,0
631,0,0,0.001,0.001,0.001,0.001,0,0,0,0,0,0.003,0,0
632,0,0,0,0.001,0.001,0.001,0,0,0,0,0,0.003,0,0
633,0,0,0.001,0.001,0.001,0.001,0,0,0,0,0,0.002,0,0
634,0,0,0.001,0.001,0.001,0.001,0,0,0,0,0,0.003,0,0
635,0,0,0,0.001,0.001,0.001,0,0,0,0,0,0.002,0,0
636,0,0,0,0.001,0.001,0.001,0,0,0,0,0,0.002,0,0
637,0,0,0,0.001,0.001,0.001,0,0,0,0,0,0.002,0,0
638,0,0,0,0.001,0.001,0.001,0,0,0,0,0,0.002,0,0
639,0,0,0,0.001,0.001,0.001,0,0,0,0,0,0.002,0,0
640,0,0,0,0.001,0.001,0.001,0,0,0,0,0,0.002,0,0
641,0,0,0,0.001,0.001,0.001,0,0,0,0,0,0.002,0,0
642,0,0,0,0.001,0.001,0.001,0,0,0,0,0,0.002,0,0
643,0,0,0,0.001,0.001,0.001,0,0,0,0,0,0.002,0,0
644,0,0,0,0.001,0.001,0.001,0,0,0,0,0,0.002,0,0
645,0,0,0,0.001,0.001,0.001,0,0,0,0,0,0.002,0,0
646,0,0,0,0.001,0.001,0.001,0,0,0,0,0,0.002,0,0
647,0,0,0,0.001,0.001,0.001,0,0,0,0,0,0.002,0,0
648,0,0,0,0.001,0.001,0.001,0,0,0,0,0,0.003,0,0
649,0,0,0,0.001,0.001,0.001,0,0,0,0,0,0.002,0,0
650,0,0,0,0.001,0.001,0.001,0,0,0,0,0,0.002,0,0
651,0,0,0,0.001,0.001,0.001,0,0,0,0,0,0.002,0,0
652,0,0,0,0.001,0.001,0.001,0,0,0,0,0,0.002,0,0
653,0,0,0,0.001,0.001,0.001,0,0,0,0,0,0.003,0,0
654,0,0,0,0.001,0.001,0.001,0,0,0,0,0,0.003,0,0
655,0,0,0,0.001,0.001,0.001,0,0,0,0,0,0.003,0,0
656,0,0,0,0.001,0.001,0.001,0,0,0,0,0,0.003,0,0
657,0,0,0,0.001,0.001,0.001,0,0,0,0,0,0.002,0,0
658,0,0,0,0.001,0.001,0.001,0,0,0,0,0,0.002,0,0
659,0,0,0,0.001,0.001,0.001,0,0,0,0,0,0.002,0,0
660,0,0,0,0.001,0.001,0.001,0,0,0,0,0,0.002,0,0
661,0,0,0,0.001,0.001,0.001,0,0,0,0,0,0.002,0,0
662,0,0,0,0.001,0.001,0.001,0,0,0,0,0,0.002,0,0
663,0,0,0,0.001,0.001,0.001,0,0,0,0,0,0.002,0,0
664,0,0,0,0.001,0.001,0.001,0,0,0,0,0,0.002,0,0
665,0,0,0,0.001,0.001,0.001,0,0,0,0,0,0.002,0,0
666,0,0,0,0.001,0.001,0.001,0,0,0,0,0,0.002,0,0
667,0,0,0,0.001,0.001,0.001,0,0,0,0,0,0.002,0,0
668,0,0,0,0.001,0.001,0.001,0,0,0,0,0,0.002,0,0
669,0,0,0,0.001,0.001,0.001,0,0,0,0,0,0.002,0,0
670,0,0,0,0.001,0.001,0.001,0,0,0,0,0,0.002,0,0
671,0,0,0,0.001,0.001,0.001,0,0,0,0,0,0.002,0,0
672,0,0,0,0.001,0.001,0.001,0,0,0,0,0,0.002,0,0
673,0,0,0,0.001,0.001,0.001,0,0,0,0,0,0.002,0,0
674,0,0,0,0.001,0.001,0.001,0,0,0,0,0,0.002,0,0
675,0,0,0,0.001,0.001,0.001,0,0,0,0,0,0.002,0,0
676,0,0,0,0.001,0.001,0.001,0,0,0,0,0,0.002,0,0
677,0,0,0,0.001,0.001,0.001,0,0,0,0,0,0.002,0,0
678,0,0,0,0.001,0.001,0.001,0,0,0,0,0,0.002,0,0
679,0,0,0,0.001,0.001,0.001,0,0,0,0,0,0.002,0,0
680,0,0,0,0.001,0.001,0.001,0,0,0,0,0,0.002,0,0
681,0,0,0,0.001,0.001,0.001,0,0,0,0,0,0.002,0,0
682,0,0,0,0.001,0.001,0.001,0,0,0,0,0,0.002,0,0
683,0,0,0,0.001,0.001,0.001,0,0,0,0,0,0.002,0,0
684,0,0,0,0.001,0.001,0.001,0,0,0,0,0,0.002,0,0
685,0,0,0,0.001,0.001,0.001,0,0,0,0,0,0.002,0,0
686,0,0,0,0.001,0.001,0.001,0,0,0,0,0,0.002,0,0
687,0,0,0,0.001,0.001,0.001,0,0,0,0,0,0.002,0,0
688,0,0,0,0.001,0.001,0.001,0,0,0,0,0,0.002,0,0
689,0,0,0,0.001,0.001,0.001,0,0,0,0,0,0.002,0,0
690,0,0,0,0.001,0.001,0.001,0,0,0,0,0,0.002,0,0
691,0,0,0,0.001,0.001,0.001,0,0,0,0,0,0.002,0,0
692,0,0,0,0.001,0.001,0.001,0,0,0,0,0,0.002,0,0
693,0,0,0,0.001,0.001,0.001,0,0,0,0,0,0.002,0,0
694,0,0,0,0.001,0.001,0.001,0,0,0,0,0,0.002,0,0
695,0,0,0,0.001,0.001,0.001,0,0,0,0,0,0.002,0,0
696,0,0,0,0.001,0.001,0.001,0,0,0,0,0,0.002,0,0
697,0,0,0,0.001,0.001,0.001,0,0,0,0,0,0.002,0,0
698,0,0,0,0.001,0.001,0.001,0,0,0,0,0,0.002,0,0
699,0,0,0,0.001,0.001,0.001,0,0,0,0,0,0.002,0,0
700,0,0,0,0.001,0.001,0.001,0,0,0,0,0,0.002,0,0
701,0,0,0,0.001,0.001,0.001,0,0,0,0,0,0.002,0,0
702,0,0,0,0.001,0.001,0.001,0,0,0,0,0,0.002,0,0
703,0,0,0,0.001,0.001,0.001,0,0,0,0,0,0.002,0,0
704,0,0,0,0.001,0.001,0.001,0,0,0,0,0,0.002,0,0
705,0,0,0,0.001,0.001,0.001,0,0,0,0,0,0.002,0,0
706,0,0,0,0.001,0.001,0.001,0,0,0,0,0,0.002,0,0
707,0,0,0,0.001,0.001,0.001,0,0,0,0,0,0.002,0,0
708,0,0,0,0.001,0.001,0.001,0,0,0,0,0,0.002,0,0
709,0,0,0,0.001,0.001,0.001,0,0,0,0,0,0.002,0,0
710,0,0,0,0.001,0.001,0.001,0,0,0,0,0,0.002,0,0
711,0,0,0,0.001,0.001,0.001,0,0,0,0,0,0.002,0,0
712,0,0,0,0.001,0.001,0.001,0,0,0,0,0,0.002,0,0
713,0,0,0,0.001,0.001,0.001,0,0,0,0,0,0.002,0,0
714,0,0,0,0.001,0.001,0.001,0,0,0,0,0,0.002,0,0
715,0,0,0,0.001,0.001,0.001,0,0,0,0,0,0.002,0,0
716,0,0,0,0.001,0.001,0.001,0,0,0,0,0,0.002,0,0
717,0,0,0,0.001,0.001,0.001,0,0,0,0,0,0.002,0,0
718,0,0,0,0.001,0.001,0.001,0,0,0,0,0,0.002,0,0
719,0,0,0,0.001,0.001,0.001,0,0,0,0,0,0.002,0,0
720,0,0,0,0.001,0.001,0.001,0,0,0,0,0,0.002,0,0
721,0,0,0,0.001,0.001,0.001,0,0,0,0,0,0.002,0,0
722,0,0,0,0.001,0.001,0.001,0,0,0,0,0,0.002,0,0
723,0,0,0,0.001,0.001,0.001,0,0,0,0,0,0.002,0,0
724,0,0,0,0.001,0.001,0.001,0,0,0,0,0,0.002,0,0
725,0,0,0,0.001,0.001,0.001,0,0,0,0,0,0.002,0,0
726,0,0,0,0.001,0.001,0.001,0,0,0,0,0,0.002,0,0
727,0,0,0,0.001,0.001,0.001,0,0,0,0,0,0.002,0,0
728,0,0,0,0.001,0.001,0.001,0,0,0,0,0,0.002,0,0
729,0,0,0,0.001,0.001,0.001,0,0,0,0,0,0.002,0,0
730,0,0,0,0.001,0.001,0.001,0,0,0,0,0,0.002,0,0
731,0,0,0,0.001,0.001,0.001,0,0,0,0,0,0.002,0,0
732,0,0,0,0.001,0.001,0.001,0,0,0,0,0,0.002,0,0
733,0,0,0,0.001,0.001,0.001,0,0,0,0,0,0.002,0,0
734,0,0,0,0.001,0.001,0.001,0,0,0,0,0,0.002,0,0
735,0,0,0,0.001,0.001,0.001,0,0,0,0,0,0.002,0,0
736,0,0,0,0.001,0.001,0.001,0,0,0,0,0,0.002,0,0
737,0,0,0,0.001,0.001,0.001,0,0,0,0,0,0.002,0,0
738,0,0,0,0.001,0.001,0.001,0,0,0,0,0,0.002,0,0
739,0,0,0,0.001,0.001,0.001,0,0,0,0,0,0.002,0,0
740,0,0,0,0.001,0.001,0.001,0,0,0,0,0,0.002,0,0
741,0,0,0,0.001,0.001,0.001,0,0,0,0,0,0.002,0,0
742,0,0,0,0.001,0.001,0.001,0,0,0,0,0,0.002,0,0
743,0,0,0,0.001,0.001,0.001,0,0,0,0,0,0.002,0,0
744,0,0,0,0.001,0.001,0.001,0,0,0,0,0,0.002,0,0
745,0,0,0,0.001,0.001,0.001,0,0,0,0,0,0.002,0,0
746,0,0,0,0.001,0.001,0.001,0,0,0,0,0,0.002,0,0
747,0,0,0,0.001,0.001,0.001,0,0,0,0,0,0.002,0,0
748,0,0,0,0.001,0.001,0.001,0,0,0,0,0,0.002,0,0
749,0,0,0,0.001,0.001,0.001,0,0,0,0,0,0.002,0,0
750,0,0,0,0.001,0.001,0.001,0,0,0,0,0,0.002,0,0
751,0,0,0,0.001,0.001,0.001,0,0,0,0,0,0.002,0,0
752,0,0,0,0.001,0.001,0.001,0,0,0,0,0,0.002,0,0
753,0,0,0,0.001,0.001,0.001,0,0,0,0,0,0.002,0,0
754,0,0,0,0.001,0.001,0.001,0,0,0,0,0,0.002,0,0
755,0,0,0,0.001,0.001,0.001,0,0,0,0,0,0.002,0,0
756,0,0,0,0.001,0.001,0.001,0,0,0,0,0,0.002,0,0
757,0,0,0,0.001,0.001,0.001,0,0,0,0,0,0.002,0,0
758,0,0,0,0.001,0.001,0.001,0,0,0,0,0,0.002,0,0
759,0,0,0.001,0.001,0.001,0.001,0,0,0,0,0,0.002,0,0
760,0.001,0.001,0.001,0.002,0.002,0.002,0.001,0.001,0.001,0.001,0.001,0.003,0.001,0.001
761,0,0,0,0.001,0.001,0.001,0,0,0,0,0,0.002,0,0
762,0,0,0,0.001,0.001,0.001,0,0,0,0,0,0.002,0,0
763,0,0,0,0.001,0.001,0.001,0,0,0,0,0,0.002,0,0
764,0,0,0,0.001,0.001,0.001,0,0,0,0,0,0.002,0,0
765,0,0,0,0.001,0.001,0.001,0,0,0,0,0,0.002,0,0
766,0,0,0,0.001,0.001,0.001,0,0,0,0,0,0.002,0,0
767,0,0,0,0.001,0.001,0.001,0,0,0,0,0,0.002,0,0
768,0,0,0,0.001,0.001,0.001,0,0,0,0,0,0.002,0,0
769,0,0,0,0.001,0.001,0.001,0,0,0,0,0,0.002,0,0
770,0,0,0,0.001,0.001,0.001,0,0,0,0,0,0.002,0,0
771,0,0,0,0.001,0.001,0.001,0,0,0,0,0,0.002,0,0
772,0,0,0,0.001,0.001,0.001,0,0,0,0,0,0.002,0,0
773,0,0,0,0.001,0.001,0.001,0,0,0,0,0,0.002,0,0
774,0,0,0,0.001,0.001,0.001,0,0,0,0,0,0.002,0,0
775,0,0,0,0.001,0.001,0.001,0,0,0,0,0,0.002,0,0
776,0,0,0,0.001,0.001,0.001,0,0,0,0,0,0.002,0,0
777,0,0,0,0.001,0.001,0.001,0,0,0,0,0,0.002,0,0
778,0,0,0,0.001,0.001,0.001,0,0,0,0,0,0.002,0,0
779,0,0,0,0.001,0.001,0.001,0,0,0,0,0,0.002,0,0
780,0,0,0,0.001,0.001,0.001,0,0,0,0,0,0.002,0,0
781,0,0,0,0.001,0.001,0.001,0,0,0,0,0,0.002,0,0
782,0,0,0,0.001,0.001,0.001,0,0,0,0,0,0.002,0,0
783,0,0,0,0.001,0.001,0.001,0,0,0,0,0,0.002,0,0
784,0,0,0,0.001,0.001,0.001,0,0,0,0,0,0.002,0,0
785,0,0,0,0.001,0.001,0.001,0,0,0,0,0,0.002,0,0
786,0,0,0,0.001,0.001,0.001,0,0,0,0,0,0.002,0,0
787,0,0,0,0.001,0.001,0.001,0,0,0,0,0,0.002,0,0
788,0,0,0,0.001,0.001,0.001,0,0,0,0,0,0.002,0,0
789,0,0,0,0.001,0.001,0.001,0,0,0,0,0,0.002,0,0
790,0,0,0,0.001,0.001,0.001,0,0,0,0,0,0.002,0,0
791,0,0,0,0.001,0.001,0.001,0,0,0,0,0,0.002,0,0
792,0,0,0,0.001,0.001,0.001,0,0,0,0,0,0.002,0,0
793,0,0,0.001,0.001,0.001,0.001,0,0,0,0,0,0.002,0,0
794,0,0,0,0.001,0.001,0.001,0,0,0,0,0,0.002,0,0
795,0,0,0,0.001,0.001,0.001,0,0,0,0,0,0.002,0,0
796,0,0,0,0.001,0.001,0.001,0,0,0,0,0,0.002,0,0
797,0,0,0,0.001,0.001,0.001,0,0,0,0,0,0.002,0,0
798,0,0,0,0.001,0.001,0.001,0,0,0,0,0,0.002,0,0
799,0,0,0,0.001,0.001,0.001,0,0,0,0,0,0.002,0,0
800,0,0,0,0.001,0.001,0.001,0,0,0,0,0,0.002,0,0
801,0,0,0,0.001,0.001,0.001,0,0,0,0,0,0.002,0,0
802,0,0,0,0.001,0.001,0.001,0,0,0,0,0,0.002,0,0
803,0,0,0,0.001,0,0.001,0,0,0,0,0,0.002,0,0
804,0,0,0,0.001,0.001,0.001,0,0,0,0,0,0.002,0,0
805,0,0,0,0.001,0.001,0.001,0,0,0,0,0,0.002,0,0
806,0,0,0,0.001,0.001,0.001,0,0,0,0,0,0.002,0,0
807,0,0,0,0.001,0.001,0.001,0,0,0,0,0,0.002,0,0
808,0,0,0,0.001,0.001,0.001,0,0,0,0,0,0.002,0,0
809,0,0,0,0.001,0.001,0.001,0,0,0,0,0,0.002,0,0
810,0,0,0,0.001,0.001,0.001,0,0,0,0,0,0.002,0,0
811,0,0,0,0.001,0.001,0.001,0,0,0,0,0,0.002,0,0
812,0,0,0,0.001,0.001,0.001,0,0,0,0,0,0.002,0,0
813,0,0,0,0.001,0.001,0.001,0,0,0,0,0,0.002,0,0
814,0,0,0,0.001,0.001,0.001,0,0,0,0,0,0.002,0,0
815,0,0,0,0.001,0.001,0.001,0,0,0,0,0,0.002,0,0
816,0,0,0.001,0.001,0.001,0.001,0,0,0,0,0,0.002,0,0
817,0,0,0,0.001,0.001,0.001,0,0,0,0,0,0.002,0,0
818,0,0,0,0.001,0.001,0.001,0,0,0,0,0,0.002,0,0
819,0,0,0,0.001,0.001,0.001,0,0,0,0,0,0.002,0,0
820,0,0,0,0.001,0.001,0.001,0,0,0,0,0,0.002,0,0
821,0,0,0,0.001,0.001,0.001,0,0,0,0,0,0.002,0,0
822,0,0,0,0.001,0.001,0.001,0,0,0,0,0,0.002,0,0
823,0,0,0,0.001,0.001,0.001,0,0,0,0,0,0.002,0,0
824,0,0,0,0.001,0.001,0.001,0,0,0,0,0,0.002,0,0
825,0,0,0,0.001,0.001,0.001,0,0,0,0,0,0.002,0,0
826,0,0,0,0.001,0.001,0.001,0,0,0,0,0,0.002,0,0
827,0,0,0,0.001,0.001,0.001,0,0,0,0,0,0.002,0,0
828,0,0,0,0.001,0.001,0.001,0,0,0,0,0,0.002,0,0
829,0,0,0,0.001,0,0.001,0,0,0,0,0,0.002,0,0
830,0,0,0,0.001,0,0.001,0,0,0,0,0,0.002,0,0
831,0,0,0,0.001,0.001,0.001,0,0,0,0,0,0.002,0,0
832,0,0,0,0.001,0.001,0.001,0,0,0,0,0,0.002,0,0
833,0,0,0,0.001,0.001,0.001,0,0,0,0,0,0.002,0,0
834,0,0,0,0.001,0.001,0.001,0,0,0,0,0,0.002,0,0
835,0,0,0,0.001,0.001,0.001,0,0,0,0,0,0.002,0,0
836,0,0,0,0.001,0.001,0.001,0,0,0,0,0,0.002,0,0
837,0,0,0,0.001,0.001,0.001,0,0,0,0,0,0.002,0,0
838,0,0,0,0.001,0.001,0.001,0,0,0,0,0,0.002,0,0
839,0,0,0,0.001,0.001,0.001,0,0,0,0,0,0.002,0,0
840,0,0,0,0.001,0.001,0.001,0,0,0,0,0,0.002,0,0
841,0,0,0,0.001,0,0.001,0,0,0,0,0,0.002,0,0
842,0,0,0,0.001,0,0.001,0,0,0,0,0,0.002,0,0
843,0,0,0,0.001,0,0.001,0,0,0,0,0,0.002,0,0
844,0,0,0,0.001,0.001,0.001,0,0,0,0,0,0.002,0,0
845,0,0,0,0.001,0.001,0.001,0,0,0,0,0,0.002,0,0
846,0,0,0,0.001,0,0,0,0,0,0,0,0.002,0,0
847,0,0,0,0.001,0,0,0,0,0,0,0,0.002,0,0
848,0,0,0,0.001,0,0,0,0,0,0,0,0.002,0,0
849,0,0,0,0.001,0,0.001,0,0,0,0,0,0.002,0,0
850,0,0,0,0.001,0,0,0,0,0,0,0,0.002,0,0
