Wavelength nm.,MilliQ,CS1_15aug24_01r1,CC3_15aug24_15r2,CC4_15aug24_6r2,CC4_15aug24_01r2,CP2_15aug24_01r2,CC3_15aug24_BOTr1,CC2_15aug24_BOTr1,CC4_15aug24_6r1,CS2_15aug24_01r1,CC4_15aug24_15r1,CC3_15aug24_01r2,CC2_15aug24_01r2,CS1_15aug24_01r2
190,0.013,0.354,0.417,0.4,0.362,0.39,0.392,0.384,0.459,0.318,0.395,0.448,0.362,0.294
191,0.01,0.337,0.38,0.366,0.332,0.356,0.36,0.349,0.422,0.302,0.364,0.41,0.331,0.284
192,0.01,0.323,0.346,0.334,0.303,0.329,0.329,0.315,0.389,0.292,0.331,0.377,0.302,0.274
193,0.009,0.31,0.313,0.301,0.27,0.3,0.295,0.283,0.354,0.28,0.298,0.337,0.269,0.263
194,0.009,0.299,0.284,0.275,0.246,0.278,0.269,0.257,0.325,0.271,0.272,0.309,0.244,0.255
195,0.009,0.288,0.258,0.251,0.222,0.257,0.244,0.233,0.299,0.264,0.248,0.281,0.221,0.247
196,0.009,0.279,0.236,0.23,0.202,0.239,0.223,0.213,0.276,0.257,0.227,0.258,0.202,0.24
197,0.008,0.271,0.217,0.211,0.185,0.223,0.204,0.195,0.255,0.25,0.208,0.237,0.185,0.233
198,0.008,0.264,0.201,0.195,0.171,0.21,0.189,0.18,0.236,0.244,0.192,0.218,0.171,0.228
199,0.008,0.258,0.186,0.181,0.158,0.198,0.175,0.166,0.22,0.239,0.178,0.203,0.159,0.223
200,0.007,0.252,0.172,0.169,0.148,0.188,0.164,0.155,0.206,0.235,0.165,0.189,0.148,0.219
201,0.007,0.246,0.16,0.158,0.138,0.179,0.154,0.144,0.193,0.23,0.154,0.177,0.139,0.215
202,0.006,0.241,0.149,0.149,0.129,0.171,0.145,0.136,0.182,0.226,0.144,0.166,0.13,0.211
203,0.006,0.237,0.141,0.141,0.122,0.165,0.137,0.129,0.173,0.222,0.137,0.157,0.124,0.208
204,0.006,0.232,0.133,0.134,0.116,0.159,0.13,0.122,0.163,0.218,0.129,0.149,0.117,0.204
205,0.005,0.227,0.126,0.128,0.11,0.154,0.124,0.116,0.155,0.214,0.123,0.141,0.112,0.2
206,0.005,0.222,0.12,0.123,0.105,0.149,0.119,0.111,0.148,0.21,0.118,0.135,0.107,0.196
207,0.005,0.218,0.116,0.118,0.101,0.145,0.115,0.107,0.143,0.205,0.113,0.129,0.103,0.192
208,0.005,0.213,0.112,0.114,0.097,0.141,0.111,0.103,0.138,0.201,0.109,0.124,0.1,0.188
209,0.005,0.207,0.107,0.11,0.094,0.137,0.107,0.099,0.132,0.195,0.105,0.119,0.096,0.184
210,0.005,0.202,0.104,0.106,0.091,0.134,0.104,0.096,0.127,0.19,0.101,0.115,0.093,0.179
211,0.005,0.196,0.1,0.103,0.088,0.13,0.101,0.093,0.123,0.184,0.098,0.111,0.09,0.174
212,0.004,0.19,0.097,0.1,0.085,0.127,0.098,0.09,0.119,0.178,0.095,0.107,0.088,0.169
213,0.004,0.184,0.094,0.097,0.082,0.124,0.095,0.088,0.115,0.172,0.092,0.103,0.085,0.164
214,0.004,0.178,0.092,0.094,0.08,0.122,0.093,0.085,0.111,0.166,0.089,0.1,0.083,0.159
215,0.004,0.172,0.089,0.091,0.078,0.119,0.09,0.083,0.108,0.16,0.087,0.096,0.081,0.153
216,0.004,0.166,0.087,0.089,0.076,0.116,0.088,0.081,0.105,0.154,0.084,0.094,0.079,0.148
217,0.004,0.16,0.085,0.086,0.074,0.114,0.086,0.079,0.102,0.148,0.082,0.091,0.077,0.142
218,0.004,0.155,0.083,0.084,0.072,0.112,0.084,0.077,0.099,0.142,0.08,0.089,0.075,0.138
219,0.004,0.149,0.081,0.082,0.07,0.11,0.082,0.075,0.097,0.136,0.078,0.086,0.073,0.133
220,0.004,0.144,0.079,0.081,0.069,0.108,0.081,0.074,0.095,0.131,0.076,0.084,0.071,0.128
221,0.004,0.14,0.077,0.079,0.067,0.106,0.079,0.072,0.092,0.126,0.074,0.082,0.07,0.124
222,0.004,0.135,0.075,0.077,0.065,0.104,0.078,0.071,0.09,0.122,0.073,0.08,0.068,0.12
223,0.004,0.131,0.074,0.075,0.064,0.102,0.076,0.069,0.088,0.117,0.071,0.078,0.067,0.116
224,0.004,0.127,0.072,0.074,0.063,0.1,0.075,0.068,0.086,0.113,0.07,0.076,0.066,0.112
225,0.003,0.123,0.071,0.072,0.061,0.099,0.073,0.066,0.084,0.109,0.068,0.074,0.064,0.109
226,0.003,0.119,0.069,0.071,0.06,0.097,0.072,0.065,0.081,0.105,0.066,0.072,0.063,0.105
227,0.003,0.115,0.068,0.069,0.059,0.095,0.07,0.064,0.079,0.102,0.065,0.071,0.062,0.102
228,0.003,0.112,0.066,0.068,0.058,0.094,0.069,0.063,0.077,0.099,0.064,0.069,0.061,0.1
229,0.003,0.11,0.065,0.067,0.057,0.092,0.068,0.061,0.076,0.096,0.062,0.068,0.059,0.097
230,0.003,0.107,0.063,0.065,0.056,0.091,0.067,0.06,0.074,0.093,0.061,0.066,0.058,0.095
231,0.003,0.104,0.062,0.064,0.055,0.09,0.066,0.059,0.072,0.091,0.06,0.065,0.057,0.092
232,0.003,0.102,0.061,0.063,0.053,0.088,0.064,0.058,0.07,0.088,0.059,0.063,0.056,0.09
233,0.003,0.099,0.06,0.061,0.052,0.087,0.063,0.057,0.069,0.086,0.058,0.062,0.055,0.088
234,0.003,0.097,0.058,0.06,0.052,0.086,0.063,0.056,0.067,0.084,0.057,0.06,0.054,0.086
235,0.002,0.095,0.057,0.059,0.051,0.084,0.062,0.055,0.066,0.083,0.056,0.059,0.054,0.085
236,0.002,0.093,0.056,0.058,0.05,0.083,0.061,0.054,0.065,0.081,0.055,0.058,0.053,0.083
237,0.002,0.092,0.056,0.057,0.049,0.082,0.06,0.054,0.064,0.079,0.054,0.057,0.052,0.082
238,0.002,0.09,0.055,0.056,0.048,0.081,0.059,0.053,0.062,0.078,0.053,0.056,0.051,0.08
239,0.002,0.089,0.054,0.056,0.048,0.08,0.058,0.052,0.062,0.077,0.052,0.055,0.05,0.079
240,0.002,0.087,0.053,0.055,0.047,0.079,0.058,0.051,0.061,0.076,0.051,0.054,0.05,0.078
241,0.002,0.086,0.052,0.054,0.047,0.078,0.057,0.051,0.06,0.074,0.05,0.054,0.049,0.077
242,0.002,0.085,0.052,0.053,0.046,0.077,0.056,0.05,0.059,0.073,0.05,0.053,0.049,0.076
243,0.002,0.084,0.051,0.053,0.046,0.076,0.056,0.05,0.058,0.072,0.049,0.052,0.048,0.075
244,0.002,0.083,0.051,0.052,0.045,0.076,0.055,0.049,0.057,0.071,0.049,0.051,0.048,0.074
245,0.002,0.081,0.05,0.052,0.044,0.075,0.055,0.048,0.057,0.07,0.048,0.051,0.047,0.073
246,0.002,0.081,0.05,0.051,0.044,0.074,0.054,0.048,0.056,0.069,0.048,0.05,0.047,0.072
247,0.002,0.08,0.049,0.051,0.043,0.073,0.054,0.048,0.055,0.068,0.047,0.05,0.046,0.071
248,0.002,0.079,0.049,0.05,0.043,0.073,0.053,0.047,0.055,0.068,0.047,0.049,0.046,0.07
249,0.002,0.078,0.048,0.05,0.043,0.073,0.053,0.047,0.055,0.067,0.046,0.049,0.046,0.07
250,0.002,0.077,0.048,0.05,0.043,0.072,0.053,0.047,0.055,0.067,0.046,0.048,0.046,0.069
251,0.002,0.077,0.048,0.049,0.043,0.072,0.052,0.046,0.054,0.066,0.046,0.048,0.045,0.068
252,0.002,0.076,0.047,0.049,0.042,0.071,0.052,0.046,0.053,0.065,0.045,0.048,0.045,0.067
253,0.001,0.075,0.047,0.048,0.042,0.07,0.051,0.045,0.053,0.064,0.045,0.047,0.044,0.067
254,0.001,0.074,0.047,0.048,0.041,0.07,0.051,0.045,0.053,0.064,0.045,0.047,0.044,0.066
255,0.002,0.074,0.046,0.048,0.041,0.069,0.051,0.045,0.052,0.063,0.044,0.047,0.043,0.066
256,0.002,0.073,0.046,0.047,0.041,0.069,0.051,0.045,0.052,0.063,0.044,0.046,0.043,0.065
257,0.002,0.073,0.046,0.047,0.04,0.068,0.05,0.044,0.052,0.062,0.044,0.046,0.043,0.065
258,0.002,0.072,0.046,0.047,0.04,0.068,0.05,0.044,0.052,0.062,0.043,0.046,0.043,0.064
259,0.002,0.071,0.045,0.046,0.04,0.068,0.049,0.044,0.051,0.061,0.043,0.045,0.042,0.063
260,0.002,0.071,0.045,0.046,0.039,0.067,0.049,0.043,0.051,0.06,0.043,0.045,0.042,0.063
261,0.002,0.07,0.045,0.045,0.039,0.066,0.049,0.043,0.051,0.06,0.042,0.045,0.042,0.062
262,0.002,0.069,0.044,0.045,0.039,0.066,0.048,0.042,0.05,0.059,0.042,0.044,0.041,0.062
263,0.001,0.069,0.044,0.044,0.038,0.065,0.048,0.042,0.05,0.059,0.041,0.044,0.041,0.061
264,0.001,0.068,0.043,0.044,0.038,0.064,0.047,0.041,0.05,0.058,0.041,0.043,0.04,0.06
265,0.001,0.067,0.042,0.043,0.037,0.064,0.046,0.041,0.049,0.057,0.04,0.043,0.04,0.06
266,0.001,0.067,0.042,0.043,0.037,0.063,0.046,0.04,0.049,0.057,0.04,0.042,0.039,0.059
267,0.002,0.066,0.041,0.042,0.036,0.062,0.045,0.04,0.048,0.056,0.039,0.042,0.039,0.058
268,0.002,0.065,0.041,0.042,0.036,0.062,0.045,0.039,0.048,0.056,0.039,0.041,0.038,0.058
269,0.001,0.065,0.04,0.041,0.035,0.061,0.044,0.039,0.047,0.055,0.038,0.041,0.037,0.057
270,0.002,0.064,0.04,0.041,0.035,0.06,0.044,0.038,0.047,0.054,0.038,0.04,0.037,0.056
271,0.001,0.064,0.039,0.04,0.034,0.059,0.043,0.037,0.046,0.053,0.037,0.039,0.036,0.056
272,0.001,0.063,0.038,0.039,0.033,0.058,0.042,0.036,0.045,0.053,0.036,0.039,0.035,0.055
273,0.001,0.062,0.038,0.038,0.033,0.057,0.041,0.036,0.045,0.052,0.035,0.038,0.035,0.054
274,0.002,0.062,0.037,0.038,0.032,0.057,0.041,0.035,0.044,0.052,0.035,0.038,0.034,0.054
275,0.001,0.061,0.036,0.037,0.031,0.056,0.04,0.035,0.043,0.051,0.034,0.037,0.033,0.053
276,0.001,0.06,0.036,0.036,0.03,0.055,0.039,0.034,0.043,0.05,0.033,0.036,0.033,0.052
277,0.001,0.059,0.035,0.036,0.03,0.054,0.038,0.033,0.042,0.05,0.033,0.035,0.032,0.052
278,0.001,0.059,0.034,0.035,0.029,0.053,0.038,0.032,0.041,0.049,0.032,0.034,0.031,0.051
279,0.001,0.058,0.034,0.034,0.028,0.052,0.037,0.031,0.04,0.048,0.031,0.034,0.03,0.051
280,0.001,0.058,0.033,0.033,0.028,0.052,0.036,0.031,0.04,0.048,0.03,0.033,0.03,0.05
281,0.001,0.057,0.032,0.033,0.027,0.051,0.036,0.03,0.039,0.048,0.03,0.033,0.029,0.049
282,0.001,0.056,0.031,0.032,0.027,0.05,0.035,0.03,0.038,0.047,0.029,0.032,0.028,0.049
283,0.001,0.055,0.031,0.031,0.026,0.049,0.034,0.029,0.037,0.046,0.029,0.031,0.028,0.048
284,0.001,0.055,0.03,0.03,0.025,0.048,0.033,0.028,0.036,0.045,0.028,0.03,0.027,0.047
285,0.001,0.054,0.029,0.03,0.024,0.047,0.032,0.027,0.035,0.045,0.027,0.029,0.026,0.047
286,0.001,0.053,0.029,0.029,0.024,0.047,0.032,0.027,0.035,0.044,0.026,0.029,0.026,0.046
287,0.001,0.053,0.028,0.028,0.023,0.046,0.031,0.026,0.034,0.044,0.026,0.028,0.025,0.045
288,0.001,0.052,0.027,0.028,0.022,0.045,0.03,0.025,0.033,0.043,0.025,0.027,0.024,0.045
289,0.001,0.051,0.027,0.027,0.022,0.044,0.03,0.025,0.032,0.043,0.024,0.027,0.024,0.044
290,0.001,0.05,0.026,0.026,0.021,0.043,0.029,0.024,0.031,0.042,0.024,0.026,0.023,0.043
291,0.001,0.05,0.025,0.026,0.021,0.043,0.028,0.023,0.03,0.041,0.023,0.025,0.022,0.043
292,0.001,0.049,0.024,0.025,0.02,0.042,0.028,0.023,0.03,0.041,0.023,0.024,0.022,0.042
293,0.001,0.049,0.024,0.024,0.019,0.041,0.027,0.022,0.029,0.04,0.022,0.024,0.021,0.041
294,0.001,0.048,0.023,0.024,0.019,0.041,0.027,0.022,0.028,0.039,0.021,0.023,0.021,0.041
295,0.001,0.047,0.023,0.023,0.018,0.04,0.026,0.021,0.027,0.039,0.021,0.022,0.02,0.04
296,0.001,0.046,0.022,0.023,0.018,0.039,0.026,0.021,0.026,0.038,0.02,0.022,0.02,0.04
297,0.001,0.046,0.022,0.022,0.018,0.039,0.025,0.02,0.026,0.038,0.02,0.021,0.019,0.039
298,0.001,0.045,0.021,0.022,0.017,0.038,0.025,0.02,0.025,0.037,0.019,0.021,0.019,0.039
299,0.001,0.044,0.02,0.021,0.017,0.037,0.024,0.019,0.024,0.037,0.019,0.02,0.018,0.038
300,0.001,0.044,0.02,0.021,0.016,0.037,0.024,0.019,0.024,0.036,0.018,0.02,0.018,0.038
301,0.001,0.044,0.02,0.02,0.016,0.036,0.023,0.018,0.023,0.036,0.018,0.019,0.018,0.037
302,0.001,0.043,0.019,0.02,0.015,0.036,0.023,0.018,0.023,0.035,0.018,0.019,0.017,0.036
303,0.001,0.042,0.019,0.019,0.015,0.035,0.022,0.017,0.022,0.035,0.017,0.018,0.017,0.036
304,0.001,0.041,0.018,0.019,0.015,0.034,0.022,0.017,0.021,0.034,0.016,0.017,0.016,0.035
305,0.001,0.041,0.018,0.018,0.014,0.034,0.022,0.017,0.021,0.034,0.016,0.017,0.016,0.035
306,0.001,0.04,0.017,0.018,0.014,0.033,0.021,0.016,0.02,0.033,0.016,0.017,0.015,0.034
307,0.001,0.04,0.017,0.018,0.013,0.033,0.021,0.016,0.02,0.033,0.015,0.016,0.015,0.034
308,0.001,0.039,0.017,0.018,0.013,0.033,0.021,0.016,0.019,0.032,0.015,0.016,0.015,0.033
309,0.001,0.039,0.017,0.017,0.013,0.032,0.02,0.015,0.019,0.032,0.015,0.016,0.015,0.033
310,0.001,0.038,0.016,0.016,0.012,0.031,0.02,0.015,0.018,0.031,0.014,0.015,0.014,0.032
311,0.001,0.037,0.016,0.016,0.012,0.031,0.02,0.015,0.018,0.031,0.014,0.015,0.014,0.032
312,0.001,0.037,0.016,0.016,0.012,0.031,0.019,0.014,0.018,0.03,0.014,0.015,0.014,0.031
313,0.001,0.036,0.015,0.016,0.012,0.03,0.019,0.014,0.017,0.03,0.013,0.014,0.014,0.031
314,0.001,0.036,0.015,0.015,0.012,0.03,0.019,0.014,0.017,0.03,0.013,0.014,0.013,0.031
315,0.001,0.035,0.015,0.015,0.011,0.03,0.018,0.014,0.017,0.029,0.013,0.013,0.013,0.03
316,0.001,0.035,0.014,0.015,0.011,0.029,0.018,0.013,0.016,0.029,0.013,0.013,0.013,0.03
317,0.001,0.035,0.014,0.015,0.011,0.029,0.018,0.013,0.016,0.028,0.012,0.013,0.012,0.029
318,0.001,0.034,0.014,0.014,0.011,0.029,0.018,0.013,0.016,0.028,0.012,0.012,0.012,0.029
319,0.001,0.034,0.014,0.014,0.01,0.028,0.018,0.013,0.015,0.027,0.012,0.012,0.012,0.028
320,0.001,0.033,0.013,0.014,0.01,0.028,0.017,0.012,0.015,0.027,0.012,0.012,0.012,0.028
321,0.001,0.033,0.013,0.014,0.01,0.027,0.017,0.012,0.015,0.027,0.011,0.012,0.012,0.027
322,0.001,0.032,0.013,0.013,0.01,0.027,0.017,0.012,0.014,0.026,0.011,0.012,0.011,0.027
323,0.001,0.032,0.013,0.013,0.01,0.027,0.016,0.012,0.014,0.026,0.011,0.011,0.011,0.027
324,0.001,0.032,0.013,0.013,0.01,0.026,0.016,0.012,0.014,0.026,0.011,0.011,0.011,0.026
325,0.001,0.031,0.013,0.013,0.01,0.026,0.016,0.012,0.014,0.025,0.011,0.011,0.011,0.026
326,0.001,0.031,0.012,0.012,0.009,0.026,0.016,0.011,0.013,0.025,0.011,0.011,0.011,0.025
327,0.001,0.031,0.012,0.012,0.009,0.026,0.016,0.011,0.013,0.024,0.01,0.011,0.01,0.025
328,0.001,0.03,0.012,0.012,0.009,0.025,0.016,0.011,0.013,0.024,0.01,0.01,0.01,0.025
329,0.001,0.03,0.012,0.012,0.009,0.025,0.015,0.011,0.013,0.024,0.01,0.01,0.01,0.025
330,0.001,0.029,0.011,0.012,0.009,0.025,0.015,0.011,0.012,0.024,0.01,0.01,0.01,0.024
331,0.001,0.029,0.011,0.011,0.008,0.024,0.015,0.01,0.012,0.023,0.01,0.01,0.01,0.024
332,0.001,0.029,0.011,0.011,0.008,0.024,0.015,0.01,0.012,0.023,0.01,0.01,0.01,0.023
333,0.001,0.028,0.011,0.011,0.008,0.024,0.014,0.01,0.012,0.023,0.009,0.01,0.01,0.023
334,0.001,0.028,0.011,0.011,0.008,0.024,0.014,0.01,0.012,0.022,0.009,0.009,0.009,0.023
335,0.001,0.028,0.01,0.011,0.008,0.023,0.014,0.01,0.012,0.022,0.009,0.009,0.009,0.022
336,0.001,0.027,0.011,0.01,0.008,0.023,0.014,0.01,0.011,0.022,0.009,0.009,0.009,0.022
337,0.001,0.027,0.01,0.011,0.007,0.023,0.014,0.009,0.011,0.021,0.009,0.009,0.009,0.022
338,0.001,0.026,0.01,0.01,0.007,0.022,0.014,0.009,0.011,0.021,0.009,0.009,0.009,0.022
339,0.001,0.026,0.01,0.01,0.008,0.023,0.014,0.01,0.011,0.022,0.009,0.009,0.009,0.022
340,0.002,0.027,0.011,0.011,0.008,0.023,0.015,0.01,0.012,0.022,0.01,0.01,0.01,0.022
341,0.001,0.026,0.01,0.01,0.007,0.022,0.014,0.009,0.01,0.02,0.009,0.009,0.009,0.021
342,0.001,0.025,0.01,0.01,0.007,0.021,0.013,0.009,0.01,0.02,0.008,0.008,0.008,0.021
343,0,0.025,0.009,0.009,0.007,0.021,0.013,0.008,0.01,0.019,0.008,0.008,0.008,0.02
344,0.001,0.024,0.009,0.009,0.007,0.02,0.013,0.008,0.01,0.019,0.008,0.008,0.008,0.019
345,0.001,0.024,0.009,0.009,0.007,0.02,0.012,0.008,0.009,0.019,0.008,0.008,0.008,0.019
346,0.001,0.023,0.009,0.009,0.006,0.02,0.012,0.008,0.01,0.019,0.008,0.008,0.008,0.019
347,0.001,0.023,0.009,0.009,0.007,0.02,0.012,0.008,0.009,0.018,0.008,0.008,0.008,0.019
348,0.001,0.023,0.009,0.009,0.006,0.02,0.012,0.008,0.009,0.018,0.007,0.007,0.007,0.018
349,0,0.023,0.009,0.008,0.006,0.019,0.012,0.008,0.009,0.017,0.007,0.007,0.007,0.018
350,0.001,0.022,0.009,0.008,0.006,0.019,0.012,0.007,0.009,0.017,0.007,0.007,0.007,0.018
351,0.001,0.022,0.008,0.009,0.006,0.019,0.012,0.007,0.009,0.017,0.007,0.007,0.007,0.018
352,0.001,0.022,0.008,0.008,0.006,0.019,0.012,0.007,0.009,0.017,0.007,0.007,0.007,0.017
353,0.001,0.021,0.008,0.008,0.006,0.018,0.012,0.007,0.008,0.017,0.007,0.007,0.007,0.017
354,0.001,0.021,0.008,0.008,0.005,0.018,0.011,0.007,0.008,0.016,0.007,0.007,0.007,0.016
355,0.001,0.021,0.008,0.008,0.005,0.018,0.011,0.007,0.008,0.016,0.007,0.006,0.007,0.016
356,0.001,0.02,0.008,0.007,0.005,0.017,0.011,0.007,0.008,0.016,0.006,0.006,0.007,0.016
357,0,0.02,0.008,0.007,0.005,0.017,0.011,0.007,0.008,0.016,0.006,0.006,0.007,0.015
358,0,0.02,0.007,0.007,0.005,0.017,0.011,0.006,0.007,0.015,0.006,0.006,0.006,0.015
359,0.001,0.02,0.007,0.007,0.005,0.017,0.011,0.006,0.008,0.015,0.006,0.006,0.006,0.015
360,0,0.019,0.007,0.007,0.005,0.017,0.01,0.006,0.007,0.015,0.006,0.006,0.006,0.015
361,0.001,0.019,0.007,0.007,0.005,0.017,0.01,0.006,0.007,0.014,0.006,0.006,0.006,0.015
362,0.001,0.019,0.007,0.007,0.005,0.016,0.01,0.006,0.007,0.014,0.006,0.006,0.006,0.014
363,0.001,0.019,0.007,0.007,0.005,0.016,0.01,0.006,0.007,0.014,0.006,0.006,0.006,0.014
364,0,0.018,0.007,0.006,0.005,0.016,0.01,0.006,0.007,0.014,0.006,0.006,0.006,0.014
365,0,0.018,0.007,0.006,0.004,0.016,0.01,0.006,0.007,0.014,0.005,0.005,0.006,0.014
366,0,0.018,0.007,0.007,0.004,0.016,0.01,0.006,0.007,0.014,0.005,0.005,0.006,0.013
367,0,0.017,0.007,0.006,0.004,0.015,0.01,0.005,0.006,0.013,0.005,0.005,0.006,0.013
368,0,0.017,0.006,0.006,0.004,0.015,0.01,0.005,0.006,0.013,0.005,0.005,0.005,0.013
369,0,0.017,0.006,0.006,0.004,0.015,0.009,0.005,0.006,0.013,0.005,0.005,0.005,0.013
370,0,0.017,0.006,0.006,0.004,0.015,0.009,0.005,0.006,0.012,0.005,0.005,0.005,0.012
371,0,0.016,0.006,0.006,0.004,0.014,0.009,0.005,0.006,0.012,0.005,0.005,0.005,0.012
372,0,0.016,0.006,0.006,0.004,0.014,0.009,0.005,0.006,0.012,0.005,0.005,0.005,0.012
373,0,0.016,0.006,0.006,0.004,0.014,0.009,0.005,0.006,0.012,0.005,0.005,0.005,0.012
374,0,0.016,0.006,0.006,0.004,0.014,0.009,0.005,0.006,0.012,0.005,0.005,0.005,0.012
375,0,0.016,0.006,0.006,0.004,0.014,0.009,0.005,0.006,0.012,0.005,0.005,0.005,0.012
376,0,0.016,0.006,0.005,0.004,0.014,0.009,0.005,0.006,0.012,0.005,0.005,0.005,0.011
377,0,0.015,0.006,0.005,0.004,0.014,0.009,0.005,0.006,0.011,0.005,0.005,0.005,0.011
378,0.001,0.015,0.006,0.005,0.004,0.013,0.009,0.005,0.005,0.011,0.005,0.005,0.005,0.011
379,0.001,0.015,0.006,0.005,0.003,0.013,0.009,0.005,0.005,0.011,0.004,0.004,0.005,0.011
380,0,0.015,0.006,0.005,0.003,0.013,0.008,0.005,0.005,0.011,0.004,0.004,0.005,0.01
381,0.001,0.015,0.006,0.005,0.003,0.013,0.009,0.005,0.005,0.011,0.005,0.004,0.004,0.011
382,0,0.014,0.005,0.005,0.003,0.013,0.008,0.004,0.005,0.01,0.004,0.004,0.004,0.01
383,0,0.014,0.005,0.005,0.003,0.012,0.008,0.004,0.005,0.01,0.004,0.004,0.004,0.01
384,0.001,0.014,0.005,0.005,0.003,0.012,0.008,0.004,0.005,0.01,0.004,0.004,0.004,0.01
385,0,0.014,0.005,0.005,0.003,0.012,0.008,0.004,0.005,0.01,0.004,0.004,0.004,0.01
386,0,0.014,0.005,0.005,0.003,0.012,0.008,0.004,0.005,0.01,0.004,0.004,0.004,0.009
387,0,0.013,0.005,0.004,0.003,0.012,0.008,0.004,0.005,0.01,0.004,0.004,0.004,0.009
388,0,0.013,0.005,0.005,0.003,0.012,0.008,0.004,0.005,0.01,0.004,0.004,0.004,0.009
389,0,0.013,0.005,0.004,0.003,0.012,0.008,0.004,0.005,0.009,0.004,0.004,0.004,0.009
390,0,0.013,0.005,0.004,0.003,0.011,0.008,0.004,0.004,0.009,0.004,0.004,0.004,0.009
391,0,0.012,0.005,0.004,0.003,0.011,0.008,0.004,0.004,0.009,0.004,0.003,0.004,0.008
392,0,0.012,0.005,0.004,0.003,0.011,0.008,0.004,0.004,0.009,0.003,0.003,0.004,0.008
393,0,0.012,0.005,0.004,0.003,0.011,0.008,0.003,0.004,0.009,0.003,0.003,0.004,0.008
394,0,0.012,0.005,0.004,0.003,0.011,0.008,0.004,0.004,0.009,0.003,0.003,0.004,0.008
395,0,0.012,0.005,0.004,0.003,0.011,0.008,0.004,0.004,0.009,0.003,0.003,0.004,0.008
396,0,0.012,0.005,0.004,0.003,0.011,0.008,0.004,0.004,0.008,0.003,0.003,0.004,0.008
397,0,0.012,0.004,0.004,0.003,0.01,0.007,0.003,0.004,0.008,0.003,0.003,0.003,0.008
398,0,0.011,0.004,0.004,0.003,0.01,0.007,0.003,0.004,0.008,0.003,0.003,0.003,0.008
399,0,0.011,0.004,0.004,0.002,0.01,0.007,0.003,0.004,0.008,0.003,0.003,0.003,0.008
400,0,0.011,0.004,0.004,0.002,0.01,0.007,0.003,0.004,0.008,0.003,0.003,0.003,0.007
401,0,0.011,0.004,0.004,0.002,0.01,0.007,0.003,0.004,0.008,0.003,0.003,0.003,0.007
402,0,0.011,0.004,0.004,0.002,0.01,0.007,0.003,0.004,0.008,0.003,0.003,0.003,0.007
403,0,0.011,0.004,0.004,0.002,0.01,0.007,0.003,0.004,0.008,0.003,0.003,0.003,0.007
404,0,0.011,0.004,0.003,0.002,0.009,0.007,0.003,0.004,0.007,0.003,0.003,0.003,0.007
405,0,0.011,0.004,0.003,0.002,0.009,0.007,0.003,0.004,0.007,0.003,0.003,0.003,0.007
406,0,0.01,0.004,0.003,0.002,0.009,0.007,0.003,0.004,0.007,0.003,0.003,0.003,0.007
407,0,0.01,0.004,0.003,0.002,0.009,0.007,0.003,0.003,0.007,0.003,0.003,0.003,0.007
408,0,0.01,0.004,0.003,0.002,0.009,0.007,0.003,0.003,0.007,0.003,0.003,0.003,0.007
409,0,0.01,0.004,0.003,0.002,0.009,0.007,0.003,0.004,0.007,0.003,0.003,0.003,0.006
410,0,0.01,0.004,0.003,0.002,0.009,0.007,0.003,0.003,0.007,0.003,0.003,0.003,0.006
411,0,0.01,0.004,0.003,0.002,0.009,0.006,0.003,0.003,0.007,0.003,0.003,0.003,0.006
412,0,0.01,0.004,0.003,0.002,0.008,0.006,0.003,0.003,0.007,0.003,0.003,0.003,0.006
413,0,0.01,0.004,0.003,0.002,0.009,0.006,0.003,0.003,0.007,0.003,0.003,0.003,0.006
414,0,0.01,0.004,0.003,0.002,0.008,0.006,0.003,0.003,0.007,0.003,0.003,0.003,0.006
415,0,0.01,0.004,0.003,0.002,0.008,0.006,0.003,0.003,0.006,0.003,0.003,0.003,0.006
416,0,0.01,0.004,0.003,0.002,0.008,0.006,0.003,0.003,0.006,0.003,0.003,0.003,0.006
417,0,0.009,0.004,0.003,0.002,0.008,0.006,0.002,0.003,0.006,0.003,0.003,0.003,0.006
418,0,0.009,0.003,0.003,0.002,0.008,0.006,0.002,0.003,0.006,0.003,0.003,0.003,0.006
419,0,0.009,0.003,0.003,0.002,0.008,0.006,0.002,0.003,0.006,0.002,0.002,0.002,0.005
420,0,0.009,0.003,0.003,0.002,0.008,0.006,0.002,0.003,0.006,0.002,0.002,0.003,0.005
421,0,0.009,0.004,0.003,0.002,0.008,0.006,0.002,0.003,0.006,0.002,0.003,0.003,0.005
422,0,0.009,0.004,0.003,0.002,0.008,0.006,0.002,0.003,0.006,0.002,0.002,0.003,0.005
423,0,0.009,0.004,0.003,0.002,0.008,0.006,0.002,0.003,0.006,0.002,0.002,0.002,0.005
424,0,0.009,0.003,0.003,0.002,0.008,0.006,0.002,0.003,0.006,0.002,0.002,0.003,0.005
425,0,0.009,0.004,0.003,0.002,0.008,0.006,0.002,0.003,0.006,0.003,0.002,0.003,0.005
426,0,0.009,0.003,0.003,0.002,0.007,0.006,0.002,0.003,0.006,0.002,0.002,0.002,0.005
427,0,0.009,0.003,0.003,0.002,0.007,0.006,0.002,0.003,0.005,0.002,0.002,0.002,0.005
428,0,0.008,0.003,0.003,0.002,0.007,0.006,0.002,0.003,0.005,0.002,0.002,0.002,0.005
429,0,0.008,0.003,0.003,0.002,0.007,0.006,0.002,0.003,0.005,0.002,0.002,0.002,0.005
430,0,0.008,0.003,0.003,0.002,0.007,0.006,0.002,0.003,0.005,0.002,0.002,0.002,0.005
431,0,0.008,0.003,0.003,0.002,0.007,0.006,0.002,0.003,0.005,0.002,0.002,0.002,0.005
432,0,0.008,0.003,0.002,0.002,0.007,0.006,0.002,0.003,0.005,0.002,0.002,0.002,0.005
433,0,0.008,0.003,0.002,0.001,0.007,0.006,0.002,0.002,0.005,0.002,0.002,0.002,0.004
434,0,0.008,0.003,0.002,0.001,0.007,0.006,0.002,0.002,0.005,0.002,0.002,0.002,0.004
435,0,0.008,0.003,0.002,0.002,0.007,0.006,0.002,0.002,0.005,0.002,0.002,0.002,0.004
436,0,0.008,0.003,0.002,0.002,0.007,0.006,0.002,0.002,0.005,0.002,0.002,0.002,0.004
437,0,0.007,0.003,0.002,0.001,0.007,0.005,0.002,0.002,0.005,0.002,0.002,0.002,0.004
438,0,0.007,0.003,0.002,0.001,0.006,0.005,0.002,0.002,0.005,0.002,0.002,0.002,0.004
439,0,0.007,0.003,0.002,0.001,0.006,0.005,0.002,0.002,0.005,0.002,0.002,0.002,0.004
440,0,0.007,0.003,0.002,0.001,0.006,0.005,0.002,0.002,0.005,0.002,0.002,0.002,0.004
441,0,0.007,0.003,0.002,0.001,0.006,0.005,0.002,0.002,0.005,0.002,0.002,0.002,0.004
442,0,0.007,0.003,0.002,0.001,0.006,0.005,0.002,0.002,0.005,0.002,0.002,0.002,0.004
443,0,0.007,0.003,0.002,0.001,0.006,0.005,0.002,0.002,0.005,0.002,0.002,0.002,0.004
444,0,0.007,0.003,0.002,0.001,0.006,0.005,0.002,0.002,0.004,0.002,0.002,0.002,0.004
445,0,0.007,0.003,0.002,0.001,0.006,0.005,0.002,0.002,0.004,0.002,0.002,0.002,0.004
446,0,0.007,0.003,0.002,0.001,0.006,0.005,0.002,0.002,0.004,0.002,0.002,0.002,0.003
447,0,0.007,0.003,0.002,0.001,0.006,0.005,0.002,0.002,0.004,0.002,0.002,0.002,0.003
448,0,0.007,0.003,0.002,0.001,0.006,0.005,0.002,0.002,0.004,0.002,0.002,0.002,0.003
449,0,0.007,0.003,0.002,0.001,0.006,0.005,0.002,0.002,0.004,0.002,0.002,0.002,0.003
450,0,0.007,0.003,0.002,0.001,0.006,0.005,0.002,0.002,0.004,0.002,0.002,0.002,0.003
451,0,0.007,0.003,0.002,0.001,0.006,0.005,0.002,0.002,0.004,0.002,0.002,0.002,0.003
452,0,0.007,0.003,0.002,0.001,0.006,0.005,0.001,0.002,0.004,0.002,0.002,0.002,0.003
453,0,0.006,0.003,0.002,0.001,0.005,0.005,0.001,0.002,0.004,0.002,0.002,0.002,0.003
454,0,0.006,0.003,0.002,0.001,0.005,0.005,0.001,0.002,0.004,0.002,0.002,0.002,0.003
455,0,0.006,0.003,0.002,0.001,0.006,0.005,0.001,0.002,0.004,0.002,0.002,0.002,0.003
456,0,0.006,0.003,0.002,0.001,0.005,0.005,0.002,0.002,0.004,0.002,0.002,0.002,0.003
457,0,0.006,0.003,0.002,0.001,0.005,0.005,0.001,0.002,0.004,0.002,0.002,0.002,0.003
458,0,0.006,0.003,0.002,0.001,0.005,0.005,0.001,0.002,0.004,0.002,0.002,0.002,0.003
459,0,0.006,0.003,0.002,0.001,0.005,0.005,0.001,0.002,0.004,0.001,0.002,0.002,0.003
460,0,0.006,0.003,0.002,0.001,0.005,0.005,0.001,0.002,0.004,0.002,0.002,0.002,0.003
461,0,0.006,0.003,0.002,0.001,0.005,0.005,0.001,0.002,0.004,0.002,0.002,0.002,0.003
462,0,0.006,0.003,0.002,0.001,0.005,0.005,0.001,0.002,0.004,0.002,0.002,0.002,0.003
463,0,0.006,0.003,0.002,0.001,0.005,0.005,0.001,0.002,0.004,0.002,0.002,0.002,0.003
464,0,0.006,0.003,0.002,0.001,0.005,0.005,0.001,0.002,0.004,0.002,0.002,0.002,0.003
465,0,0.006,0.002,0.002,0.001,0.005,0.005,0.001,0.002,0.003,0.001,0.001,0.001,0.003
466,0,0.006,0.002,0.002,0.001,0.005,0.005,0.001,0.002,0.003,0.001,0.001,0.001,0.003
467,0,0.006,0.002,0.002,0.001,0.005,0.005,0.001,0.002,0.003,0.001,0.001,0.001,0.002
468,0,0.006,0.002,0.001,0.001,0.005,0.004,0.001,0.002,0.003,0.001,0.001,0.001,0.002
469,0,0.006,0.002,0.002,0.001,0.005,0.004,0.001,0.002,0.003,0.001,0.001,0.001,0.002
470,0,0.006,0.002,0.002,0.001,0.005,0.005,0.001,0.002,0.003,0.001,0.001,0.001,0.002
471,0,0.006,0.002,0.002,0.001,0.005,0.005,0.001,0.002,0.003,0.001,0.001,0.001,0.002
472,0,0.006,0.002,0.002,0.001,0.005,0.004,0.001,0.002,0.003,0.001,0.001,0.001,0.002
473,0,0.006,0.003,0.002,0.001,0.005,0.004,0.001,0.002,0.003,0.001,0.001,0.001,0.002
474,0,0.005,0.002,0.001,0.001,0.005,0.004,0.001,0.002,0.003,0.001,0.001,0.001,0.002
475,0,0.005,0.002,0.001,0.001,0.004,0.004,0.001,0.001,0.003,0.001,0.001,0.001,0.002
476,0,0.005,0.002,0.001,0.001,0.005,0.004,0.001,0.002,0.003,0.001,0.001,0.001,0.002
477,0,0.005,0.002,0.001,0.001,0.004,0.004,0.001,0.002,0.003,0.001,0.001,0.001,0.002
478,0,0.005,0.002,0.001,0.001,0.004,0.004,0.001,0.001,0.003,0.001,0.001,0.001,0.002
479,0,0.005,0.002,0.001,0.001,0.004,0.004,0.001,0.002,0.003,0.001,0.001,0.001,0.002
480,0,0.005,0.002,0.001,0.001,0.004,0.004,0.001,0.002,0.003,0.001,0.001,0.001,0.002
481,0,0.005,0.002,0.001,0.001,0.004,0.004,0.001,0.001,0.003,0.001,0.001,0.001,0.002
482,0,0.005,0.002,0.001,0.001,0.004,0.004,0.001,0.001,0.003,0.001,0.001,0.001,0.002
483,0,0.005,0.002,0.001,0.001,0.004,0.004,0.001,0.001,0.003,0.001,0.001,0.001,0.002
484,0,0.005,0.002,0.001,0.001,0.004,0.004,0.001,0.001,0.003,0.001,0.001,0.001,0.002
485,0,0.005,0.002,0.001,0.001,0.004,0.004,0.001,0.001,0.003,0.001,0.001,0.001,0.002
486,0,0.005,0.002,0.001,0.001,0.004,0.004,0.001,0.001,0.003,0.001,0.001,0.001,0.002
487,0,0.005,0.002,0.001,0.001,0.004,0.004,0.001,0.001,0.003,0.001,0.001,0.001,0.002
488,0,0.005,0.002,0.001,0.001,0.004,0.004,0.001,0.001,0.003,0.001,0.001,0.001,0.002
489,0,0.005,0.002,0.001,0.001,0.004,0.004,0.001,0.001,0.003,0.001,0.001,0.001,0.002
490,0,0.005,0.002,0.001,0.001,0.004,0.004,0.001,0.001,0.003,0.001,0.001,0.001,0.002
491,0,0.005,0.002,0.001,0.001,0.004,0.004,0.001,0.001,0.003,0.001,0.001,0.001,0.002
492,0,0.005,0.002,0.001,0.001,0.004,0.004,0.001,0.001,0.003,0.001,0.001,0.001,0.002
493,0,0.005,0.002,0.001,0.001,0.004,0.004,0.001,0.001,0.003,0.001,0.001,0.001,0.002
494,0,0.005,0.002,0.001,0.001,0.004,0.004,0.001,0.001,0.003,0.001,0.001,0.001,0.002
495,0,0.005,0.002,0.001,0.001,0.004,0.004,0.001,0.001,0.003,0.001,0.001,0.001,0.002
496,0,0.005,0.002,0.001,0.001,0.004,0.004,0.001,0.001,0.003,0.001,0.001,0.001,0.002
497,0,0.005,0.002,0.001,0.001,0.004,0.004,0.001,0.001,0.003,0.001,0.001,0.001,0.002
498,0,0.005,0.002,0.001,0.001,0.004,0.004,0.001,0.001,0.003,0.001,0.001,0.001,0.002
499,0,0.005,0.002,0.001,0.001,0.004,0.004,0.001,0.001,0.003,0.001,0.001,0.001,0.002
500,0,0.005,0.002,0.001,0.001,0.004,0.004,0.001,0.001,0.003,0.001,0.001,0.001,0.002
501,0,0.005,0.002,0.001,0.001,0.004,0.004,0.001,0.001,0.003,0.001,0.001,0.001,0.002
502,0,0.005,0.002,0.001,0.001,0.004,0.004,0.001,0.001,0.003,0.001,0.001,0.001,0.002
503,0,0.005,0.002,0.001,0.001,0.004,0.004,0.001,0.001,0.002,0.001,0.001,0.001,0.002
504,0,0.005,0.002,0.001,0.001,0.004,0.004,0.001,0.001,0.003,0.001,0.001,0.001,0.002
505,0,0.005,0.002,0.001,0.001,0.004,0.004,0.001,0.001,0.003,0.001,0.001,0.001,0.002
506,0,0.005,0.002,0.001,0.001,0.004,0.004,0.001,0.001,0.003,0.001,0.001,0.001,0.002
507,0,0.005,0.002,0.001,0.001,0.004,0.004,0.001,0.001,0.003,0.001,0.001,0.001,0.002
508,0,0.005,0.002,0.001,0.001,0.004,0.004,0.001,0.001,0.003,0.001,0.001,0.001,0.002
509,0,0.005,0.002,0.001,0.001,0.004,0.004,0.001,0.001,0.002,0.001,0.001,0.001,0.002
510,0,0.004,0.002,0.001,0.001,0.003,0.004,0.001,0.001,0.002,0.001,0.001,0.001,0.001
511,0,0.004,0.002,0.001,0.001,0.003,0.004,0.001,0.001,0.002,0.001,0.001,0.001,0.001
512,0,0.005,0.002,0.001,0.001,0.004,0.004,0.001,0.001,0.002,0.001,0.001,0.001,0.002
513,0,0.004,0.002,0.001,0.001,0.003,0.004,0.001,0.001,0.002,0.001,0.001,0.001,0.001
514,0,0.004,0.002,0.001,0.001,0.003,0.004,0.001,0.001,0.002,0.001,0.001,0.001,0.001
515,0,0.004,0.002,0.001,0.001,0.003,0.004,0.001,0.001,0.002,0.001,0.001,0.001,0.001
516,0,0.004,0.002,0.001,0.001,0.003,0.004,0.001,0.001,0.002,0.001,0.001,0.001,0.001
517,0,0.004,0.002,0.001,0.001,0.003,0.004,0.001,0.001,0.002,0.001,0.001,0.001,0.001
518,0,0.004,0.002,0.001,0.001,0.003,0.004,0.001,0.001,0.002,0.001,0.001,0.001,0.001
519,0,0.004,0.002,0.001,0.001,0.003,0.004,0.001,0.001,0.002,0.001,0.001,0.001,0.001
520,0,0.004,0.002,0.001,0.001,0.003,0.004,0.001,0.001,0.002,0.001,0.001,0.001,0.001
521,0,0.004,0.002,0.001,0.001,0.003,0.004,0.001,0.001,0.002,0.001,0.001,0.001,0.001
522,0,0.004,0.002,0.001,0.001,0.003,0.004,0.001,0.001,0.002,0.001,0.001,0.001,0.001
523,0,0.004,0.002,0.001,0.001,0.003,0.004,0.001,0.001,0.002,0.001,0.001,0.001,0.001
524,0,0.004,0.002,0.001,0,0.003,0.004,0.001,0.001,0.002,0.001,0.001,0.001,0.001
525,0,0.004,0.002,0.001,0,0.003,0.004,0.001,0.001,0.002,0.001,0.001,0.001,0.001
526,0,0.004,0.002,0.001,0.001,0.003,0.004,0.001,0.001,0.002,0.001,0.001,0.001,0.001
527,0,0.004,0.002,0.001,0.001,0.003,0.004,0.001,0.001,0.002,0.001,0.001,0.001,0.001
528,0,0.004,0.002,0.001,0.001,0.003,0.004,0.001,0.001,0.002,0.001,0.001,0.001,0.001
529,0,0.004,0.002,0.001,0.001,0.003,0.004,0.001,0.001,0.002,0.001,0.001,0.001,0.001
530,0,0.004,0.002,0.001,0,0.003,0.004,0.001,0.001,0.002,0.001,0.001,0.001,0.001
531,0,0.004,0.002,0.001,0,0.003,0.003,0.001,0.001,0.002,0.001,0.001,0.001,0.001
532,0,0.004,0.002,0.001,0,0.003,0.003,0.001,0.001,0.002,0.001,0.001,0.001,0.001
533,0,0.004,0.002,0.001,0,0.003,0.003,0.001,0.001,0.002,0.001,0.001,0.001,0.001
534,0,0.004,0.002,0.001,0,0.003,0.003,0.001,0.001,0.002,0.001,0.001,0.001,0.001
535,0,0.004,0.002,0.001,0.001,0.003,0.004,0.001,0.001,0.002,0.001,0.001,0.001,0.001
536,0.001,0.005,0.003,0.002,0.001,0.004,0.004,0.002,0.002,0.003,0.002,0.002,0.002,0.002
537,0,0.004,0.002,0.001,0.001,0.003,0.004,0.001,0.001,0.002,0.001,0.001,0.001,0.001
538,0,0.004,0.002,0.001,0.001,0.003,0.003,0.001,0.001,0.002,0.001,0.001,0.001,0.001
539,0,0.004,0.002,0.001,0,0.003,0.003,0,0.001,0.002,0.001,0.001,0.001,0.001
540,0,0.004,0.002,0.001,0,0.003,0.003,0,0.001,0.002,0.001,0.001,0.001,0.001
541,0,0.004,0.002,0.001,0.001,0.003,0.003,0.001,0.001,0.002,0.001,0.001,0.001,0.001
542,0,0.004,0.002,0.001,0,0.003,0.003,0.001,0.001,0.002,0.001,0.001,0.001,0.001
543,0,0.004,0.002,0.001,0.001,0.003,0.003,0.001,0.001,0.002,0.001,0.001,0.001,0.001
544,0,0.004,0.002,0.001,0.001,0.003,0.003,0.001,0.001,0.002,0.001,0.001,0.001,0.001
545,0,0.003,0.002,0.001,0.001,0.003,0.003,0,0.001,0.002,0.001,0.001,0.001,0.001
546,0,0.003,0.002,0.001,0,0.003,0.003,0.001,0.001,0.002,0.001,0.001,0.001,0.001
547,0,0.003,0.002,0.001,0,0.003,0.003,0,0.001,0.002,0.001,0.001,0.001,0.001
548,0,0.004,0.002,0.001,0,0.003,0.003,0,0.001,0.002,0,0.001,0.001,0.001
549,0,0.003,0.002,0.001,0,0.003,0.003,0,0.001,0.002,0,0.001,0.001,0.001
550,0,0.003,0.002,0.001,0,0.003,0.003,0,0.001,0.002,0.001,0.001,0.001,0.001
551,0,0.003,0.002,0.001,0,0.003,0.003,0,0.001,0.002,0.001,0.001,0.001,0.001
552,0,0.003,0.002,0.001,0,0.003,0.003,0.001,0.001,0.002,0.001,0.001,0.001,0.001
553,0,0.003,0.002,0.001,0,0.003,0.003,0.001,0.001,0.002,0.001,0.001,0.001,0.001
554,0,0.003,0.002,0.001,0,0.003,0.003,0.001,0.001,0.002,0.001,0.001,0.001,0.001
555,0,0.003,0.002,0.001,0,0.003,0.003,0.001,0.001,0.002,0.001,0.001,0.001,0.001
556,0,0.003,0.002,0.001,0,0.003,0.003,0.001,0.001,0.002,0.001,0.001,0.001,0.001
557,0,0.003,0.002,0.001,0,0.003,0.003,0.001,0.001,0.002,0.001,0.001,0.001,0.001
558,0,0.003,0.002,0.001,0,0.003,0.003,0.001,0.001,0.002,0,0.001,0.001,0.001
559,0,0.003,0.002,0.001,0,0.003,0.003,0,0.001,0.002,0.001,0,0.001,0.001
560,0,0.003,0.002,0.001,0,0.003,0.003,0,0.001,0.002,0.001,0.001,0.001,0.001
561,0,0.003,0.002,0.001,0,0.002,0.003,0,0.001,0.002,0.001,0.001,0.001,0.001
562,0,0.003,0.002,0.001,0,0.002,0.003,0.001,0.001,0.002,0.001,0.001,0.001,0.001
563,0,0.003,0.002,0.001,0,0.002,0.003,0,0.001,0.002,0,0.001,0.001,0.001
564,0,0.003,0.002,0.001,0,0.002,0.003,0,0.001,0.002,0.001,0.001,0.001,0.001
565,0,0.003,0.002,0.001,0,0.003,0.003,0,0.001,0.002,0.001,0.001,0.001,0.001
566,0,0.003,0.002,0.001,0.001,0.003,0.003,0.001,0.001,0.002,0.001,0.001,0.001,0.001
567,0,0.003,0.002,0.001,0,0.002,0.003,0,0.001,0.002,0.001,0.001,0.001,0.001
568,0,0.003,0.002,0.001,0,0.002,0.003,0,0.001,0.002,0.001,0.001,0.001,0.001
569,0,0.003,0.002,0.001,0,0.002,0.003,0,0.001,0.002,0.001,0.001,0.001,0.001
570,0,0.003,0.002,0.001,0,0.002,0.003,0,0.001,0.002,0.001,0.001,0.001,0.001
571,0,0.003,0.002,0.001,0,0.002,0.003,0,0.001,0.002,0.001,0.001,0.001,0.001
572,0,0.003,0.001,0.001,0,0.002,0.003,0,0.001,0.002,0.001,0.001,0.001,0.001
573,0,0.003,0.002,0.001,0,0.002,0.003,0,0.001,0.002,0.001,0.001,0.001,0.001
574,0,0.003,0.001,0.001,0,0.002,0.003,0,0.001,0.001,0.001,0.001,0.001,0.001
575,0,0.003,0.001,0.001,0,0.002,0.003,0,0.001,0.001,0.001,0.001,0.001,0.001
576,0,0.003,0.002,0.001,0,0.002,0.003,0,0.001,0.002,0.001,0.001,0.001,0.001
577,0,0.003,0.002,0.001,0,0.002,0.003,0,0.001,0.002,0.001,0.001,0.001,0.001
578,0,0.003,0.002,0.001,0,0.002,0.003,0,0.001,0.002,0.001,0.001,0.001,0.001
579,0,0.003,0.002,0.001,0,0.002,0.003,0,0.001,0.002,0.001,0.001,0.001,0.001
580,0,0.003,0.002,0.001,0,0.002,0.003,0,0.001,0.002,0.001,0.001,0.001,0.001
581,0,0.003,0.002,0.001,0,0.002,0.003,0,0.001,0.002,0.001,0.001,0.001,0.001
582,0,0.003,0.002,0.001,0,0.002,0.003,0,0.001,0.002,0.001,0.001,0.001,0.001
583,0,0.003,0.002,0.001,0,0.002,0.003,0,0.001,0.002,0.001,0.001,0.001,0.001
584,0,0.003,0.002,0.001,0,0.002,0.003,0,0.001,0.002,0.001,0.001,0.001,0.001
585,0,0.003,0.002,0.001,0,0.002,0.003,0,0.001,0.002,0.001,0.001,0.001,0.001
586,0,0.003,0.002,0.001,0,0.002,0.003,0,0.001,0.002,0.001,0.001,0.001,0.001
587,0,0.003,0.002,0.001,0,0.002,0.003,0,0.001,0.002,0.001,0.001,0.001,0.001
588,0,0.003,0.001,0.001,0,0.002,0.003,0,0.001,0.002,0.001,0.001,0.001,0.001
589,0,0.003,0.001,0.001,0,0.002,0.003,0,0.001,0.001,0.001,0.001,0.001,0.001
590,0,0.003,0.001,0.001,0,0.002,0.003,0,0.001,0.001,0.001,0.001,0.001,0
591,0,0.003,0.001,0.001,0,0.002,0.003,0,0.001,0.002,0.001,0.001,0.001,0.001
592,0,0.003,0.002,0.001,0,0.002,0.003,0,0.001,0.002,0.001,0.001,0.001,0.001
593,0,0.003,0.002,0.001,0,0.002,0.003,0,0.001,0.002,0.001,0.001,0.001,0.001
594,0,0.003,0.001,0.001,0,0.002,0.003,0,0.001,0.001,0.001,0.001,0.001,0.001
595,0,0.003,0.002,0.001,0,0.002,0.003,0,0.001,0.001,0.001,0.001,0.001,0.001
596,0,0.003,0.002,0.001,0,0.002,0.003,0,0.001,0.001,0.001,0.001,0.001,0
597,0,0.003,0.001,0.001,0,0.002,0.003,0,0.001,0.001,0,0.001,0.001,0
598,0,0.003,0.001,0.001,0,0.002,0.003,0,0.001,0.001,0,0,0.001,0
599,0,0.003,0.001,0.001,0,0.002,0.003,0,0.001,0.001,0,0.001,0.001,0
600,0,0.003,0.002,0.001,0,0.002,0.003,0,0.001,0.001,0,0.001,0.001,0.001
601,0,0.003,0.002,0.001,0,0.002,0.003,0,0.001,0.001,0.001,0.001,0.001,0.001
602,0,0.003,0.002,0.001,0,0.002,0.003,0,0.001,0.002,0.001,0.001,0.001,0.001
603,0,0.003,0.001,0.001,0,0.002,0.003,0,0.001,0.002,0,0.001,0.001,0.001
604,0,0.003,0.001,0.001,0,0.002,0.003,0,0.001,0.001,0,0,0.001,0
605,0,0.003,0.001,0.001,0,0.002,0.003,0,0.001,0.001,0,0,0.001,0
606,0,0.003,0.001,0.001,0,0.002,0.003,0,0.001,0.001,0,0.001,0.001,0
607,0,0.003,0.001,0.001,0,0.002,0.003,0,0.001,0.001,0,0,0.001,0
608,0,0.003,0.001,0.001,0,0.002,0.003,0,0.001,0.001,0,0,0,0
609,0,0.003,0.001,0.001,0,0.002,0.003,0,0.001,0.001,0,0,0.001,0
610,0,0.003,0.001,0.001,0,0.002,0.003,0,0.001,0.001,0,0,0.001,0
611,0,0.003,0.001,0.001,0,0.002,0.003,0,0.001,0.001,0,0,0.001,0
612,0,0.003,0.001,0.001,0,0.002,0.003,0,0.001,0.001,0,0,0.001,0
613,0,0.003,0.001,0.001,0,0.002,0.003,0,0.001,0.001,0,0,0,0
614,0,0.003,0.001,0.001,0,0.002,0.003,0,0,0.001,0,0,0,0
615,0,0.003,0.001,0.001,0,0.002,0.003,0,0.001,0.001,0,0,0,0
616,0,0.003,0.001,0.001,0,0.002,0.003,0,0.001,0.001,0,0,0.001,0
617,0,0.003,0.001,0.001,0,0.002,0.003,0,0.001,0.001,0,0,0.001,0.001
618,0,0.003,0.002,0.001,0,0.002,0.003,0,0.001,0.001,0,0,0.001,0.001
619,0,0.003,0.001,0.001,0,0.002,0.003,0,0.001,0.001,0,0,0.001,0.001
620,0,0.003,0.001,0.001,0,0.002,0.003,0,0.001,0.001,0,0,0.001,0
621,0,0.003,0.001,0.001,0,0.002,0.003,0,0.001,0.001,0,0,0,0
622,0,0.003,0.001,0.001,0,0.002,0.003,0,0.001,0.001,0,0,0.001,0
623,0,0.003,0.001,0.001,0,0.002,0.003,0,0.001,0.001,0,0,0.001,0
624,0,0.003,0.001,0.001,0,0.002,0.003,0,0.001,0.001,0,0,0,0
625,0,0.003,0.001,0.001,0,0.002,0.003,0,0,0.001,0,0,0.001,0
626,0,0.003,0.001,0.001,0,0.002,0.003,0,0.001,0.001,0,0,0.001,0
627,0,0.003,0.001,0.001,0,0.002,0.003,0,0.001,0.001,0,0,0.001,0
628,0,0.003,0.001,0.001,0,0.002,0.003,0,0.001,0.001,0,0,0.001,0
629,0,0.003,0.001,0.001,0,0.002,0.003,0,0.001,0.001,0,0,0.001,0
630,0,0.003,0.001,0.001,0,0.002,0.003,0,0.001,0.001,0,0,0.001,0
631,0,0.003,0.001,0.001,0,0.002,0.003,0,0.001,0.001,0,0,0,0
632,0,0.003,0.001,0.001,0,0.002,0.003,0,0.001,0.001,0,0,0.001,0
633,0,0.003,0.001,0.001,0,0.002,0.003,0,0.001,0.001,0,0,0.001,0
634,0,0.003,0.001,0.001,0,0.002,0.003,0,0.001,0.001,0,0,0.001,0
635,0,0.003,0.001,0.001,0,0.002,0.003,0,0.001,0.001,0,0,0.001,0
636,0,0.003,0.001,0.001,0,0.002,0.003,0,0,0.001,0,0,0,0
637,0,0.003,0.001,0,0,0.002,0.003,0,0,0.001,0,0,0,0
638,0,0.003,0.001,0.001,0,0.002,0.003,0,0.001,0.001,0,0,0,0
639,0,0.003,0.001,0,0,0.002,0.003,0,0,0.001,0,0,0,0
640,0,0.003,0.001,0,0,0.002,0.002,0,0,0.001,0,0,0,0
641,0,0.003,0.001,0,0,0.002,0.002,0,0,0.001,0,0,0,0
642,0,0.003,0.001,0.001,0,0.002,0.003,0,0,0.001,0,0,0,0
643,0,0.003,0.001,0.001,0,0.002,0.003,0,0,0.001,0,0,0,0
644,0,0.003,0.001,0.001,0,0.002,0.003,0,0,0.001,0,0,0,0
645,0,0.003,0.001,0,0,0.002,0.003,0,0,0.001,0,0,0,0
646,0,0.003,0.001,0,0,0.002,0.003,0,0,0.001,0,0,0,0
647,0,0.003,0.001,0,0,0.002,0.003,0,0,0.001,0,0,0,0
648,0,0.003,0.001,0.001,0,0.002,0.003,0,0.001,0.001,0,0,0.001,0
649,0,0.003,0.001,0.001,0,0.002,0.003,0,0.001,0.001,0,0,0.001,0
650,0,0.003,0.001,0.001,0,0.002,0.003,0,0.001,0.001,0,0,0.001,0
651,0,0.003,0.001,0.001,0,0.002,0.003,0,0.001,0.001,0,0,0.001,0
652,0,0.003,0.001,0.001,0,0.002,0.003,0,0.001,0.001,0,0,0.001,0
653,0,0.003,0.001,0.001,0,0.002,0.003,0,0.001,0.001,0,0,0.001,0
654,0,0.003,0.001,0.001,0,0.002,0.003,0,0.001,0.001,0,0,0.001,0
655,0,0.003,0.001,0.001,0,0.002,0.003,0,0.001,0.001,0.001,0,0.001,0
656,0,0.003,0.001,0.001,0,0.002,0.003,0,0.001,0.001,0.001,0.001,0.001,0
657,0,0.003,0.001,0.001,0,0.002,0.003,0,0.001,0.001,0.001,0.001,0.001,0
658,0,0.003,0.001,0.001,0,0.002,0.003,0,0.001,0.001,0,0,0.001,0
659,0,0.003,0.001,0.001,0,0.002,0.003,0,0.001,0.001,0,0,0.001,0
660,0,0.003,0.001,0.001,0,0.002,0.002,0,0,0.001,0,0,0.001,0
661,0,0.003,0.001,0.001,0,0.002,0.003,0,0.001,0.001,0,0,0.001,0
662,0,0.003,0.001,0.001,0,0.002,0.002,0,0.001,0.001,0,0,0.001,0
663,0,0.003,0.001,0.001,0,0.002,0.003,0,0.001,0.001,0,0,0.001,0
664,0,0.003,0.001,0.001,0,0.002,0.002,0,0,0.001,0,0,0.001,0
665,0,0.003,0.001,0,0,0.002,0.002,0,0,0.001,0,0,0,0
666,0,0.003,0.001,0.001,0,0.001,0.002,0,0,0.001,0,0,0.001,0
667,0,0.003,0.001,0.001,0,0.002,0.002,0,0,0.001,0,0,0.001,0
668,0,0.003,0.001,0.001,0,0.002,0.003,0,0,0.001,0,0,0,0
669,0,0.003,0.001,0.001,0,0.002,0.003,0,0.001,0.001,0,0,0.001,0
670,0,0.003,0.001,0.001,0,0.002,0.002,0,0.001,0.001,0,0,0.001,0
671,0,0.003,0.001,0.001,0,0.002,0.003,0,0.001,0.001,0,0,0.001,0
672,0,0.003,0.001,0.001,0,0.002,0.003,0,0.001,0.001,0,0,0.001,0
673,0,0.003,0.001,0.001,0,0.002,0.002,0,0.001,0.001,0.001,0,0.001,0
674,0,0.003,0.001,0.001,0,0.002,0.003,0,0,0.001,0.001,0,0.001,0
675,0,0.003,0.001,0.001,0,0.002,0.003,0,0.001,0.001,0.001,0,0.001,0
676,0,0.003,0.001,0.001,0,0.002,0.003,0,0.001,0.001,0.001,0.001,0.001,0.001
677,0,0.003,0.001,0.001,0,0.002,0.002,0,0.001,0.001,0.001,0.001,0.001,0
678,0,0.003,0.001,0.001,0,0.002,0.002,0,0.001,0.001,0,0.001,0.001,0
679,0,0.003,0.001,0.001,0,0.002,0.002,0,0.001,0.001,0,0,0,0
680,0,0.003,0.001,0.001,0,0.002,0.002,0,0.001,0.001,0,0,0.001,0
681,0,0.003,0.001,0.001,0,0.002,0.003,0,0.001,0.001,0,0,0.001,0
682,0,0.003,0.001,0.001,0,0.002,0.002,0,0.001,0.001,0,0,0.001,0
683,0,0.003,0.001,0.001,0,0.002,0.002,0,0.001,0.001,0,0,0.001,0
684,0,0.003,0.001,0.001,0,0.002,0.002,0,0.001,0.001,0,0,0.001,0
685,0,0.003,0.001,0.001,0,0.002,0.003,0,0.001,0.001,0.001,0.001,0.001,0.001
686,0,0.003,0.001,0.001,0,0.002,0.003,0,0.001,0.001,0.001,0.001,0.001,0
687,0,0.003,0.001,0.001,0,0.002,0.003,0,0.001,0.001,0,0.001,0.001,0
688,0,0.003,0.001,0.001,0,0.001,0.002,0,0,0.001,0,0,0.001,0
689,0,0.003,0.001,0.001,0,0.002,0.002,0,0.001,0.001,0,0,0.001,0
690,0,0.003,0.001,0.001,0,0.002,0.002,0,0.001,0.001,0,0,0.001,0
691,0,0.002,0.001,0.001,0,0.002,0.002,0,0.001,0.001,0,0,0.001,0
692,0,0.003,0.001,0.001,0,0.002,0.002,0,0.001,0.001,0,0,0.001,0
693,0,0.002,0.001,0.001,0,0.001,0.002,0,0.001,0.001,0,0,0.001,0
694,0,0.002,0.001,0.001,0,0.002,0.002,0,0.001,0.001,0,0,0.001,0
695,0,0.003,0.001,0.001,0,0.002,0.002,0,0.001,0.001,0,0,0.001,0
696,0,0.003,0.001,0.001,0,0.001,0.002,0,0,0.001,0,0,0.001,0
697,0,0.003,0.001,0.001,0,0.002,0.002,0,0.001,0.001,0,0,0.001,0
698,0,0.003,0.001,0.001,0,0.001,0.002,0,0.001,0.001,0,0,0.001,0
699,0,0.002,0.001,0,0,0.001,0.002,0,0.001,0.001,0,0,0.001,0
700,0,0.002,0.001,0,0,0.001,0.002,0,0.001,0.001,0,0,0.001,0
701,0,0.002,0.001,0,0,0.002,0.002,0,0.001,0.001,0,0,0,0
702,0,0.002,0.001,0,0,0.001,0.002,0,0.001,0.001,0,0,0,0
703,0,0.002,0.001,0.001,0,0.001,0.002,0,0.001,0.001,0,0,0,0
704,0,0.002,0.001,0,0,0.001,0.002,0,0,0.001,0,0,0,0
705,0,0.002,0.001,0,0,0.001,0.002,0,0,0.001,0,0,0,0
706,0,0.002,0.001,0,0,0.001,0.002,0,0,0.001,0,0,0,0
707,0,0.002,0.001,0,0,0.001,0.002,0,0,0.001,0,0,0,0
708,0,0.002,0.001,0,0,0.001,0.002,0,0,0.001,0,0,0,0
709,0,0.002,0.001,0,0,0.001,0.002,0,0,0.001,0,0,0.001,0
710,0,0.002,0.001,0.001,0,0.001,0.002,0,0.001,0.001,0,0,0.001,0.001
711,0,0.002,0.001,0.001,0,0.002,0.002,0,0.001,0.001,0,0,0.001,0
712,0,0.002,0.001,0.001,0,0.002,0.002,0,0,0.001,0,0,0.001,0
713,0,0.002,0.001,0.001,0,0.001,0.002,0,0,0.001,0,0,0.001,0
714,0,0.002,0.001,0.001,0,0.001,0.002,0,0,0.001,0,0,0.001,0
715,0,0.002,0.001,0.001,0,0.001,0.002,0,0,0.001,0,0,0.001,0
716,0,0.002,0.001,0,0,0.001,0.002,0,0,0.001,0,0,0.001,0
717,0,0.002,0.001,0,0,0.001,0.002,0,0.001,0.001,0,0,0.001,0
718,0,0.002,0.001,0.001,0,0.001,0.002,0,0,0.001,0,0,0.001,0
719,0,0.002,0.001,0.001,0,0.001,0.002,0,0.001,0.001,0,0,0.001,0
720,0,0.002,0.001,0.001,0,0.001,0.002,0,0.001,0.001,0,0,0.001,0
721,0,0.002,0.001,0.001,0,0.001,0.002,0,0.001,0.001,0,0,0.001,0
722,0,0.002,0.001,0.001,0,0.001,0.002,0,0,0.001,0,0,0.001,0
723,0,0.002,0.001,0.001,0,0.001,0.002,0,0,0.001,0,0,0.001,0
724,0,0.002,0.001,0,0,0.001,0.002,0,0,0.001,0,0,0,0
725,0,0.002,0.001,0,0,0.001,0.002,0,0,0.001,0,0,0,0
726,0,0.002,0.001,0,0,0.001,0.002,0,0,0.001,0,0,0,0
727,0,0.002,0.001,0.001,0,0.001,0.002,0,0.001,0.001,0,0,0.001,0
728,0,0.002,0.001,0,0,0.001,0.002,0,0,0.001,0,0,0.001,0
729,0,0.002,0.001,0,0,0.001,0.002,0,0,0.001,0,0,0,0
730,0,0.002,0.001,0,0,0.001,0.002,0,0.001,0.001,0,0,0,0
731,0,0.002,0.001,0,0,0.001,0.002,0,0,0.001,0,0,0,0
732,0,0.002,0.001,0,0,0.001,0.002,0,0,0.001,0,0,0,0
733,0,0.002,0.001,0,0,0.001,0.002,0,0,0.001,0,0,0,0
734,0,0.002,0.001,0,0,0.001,0.002,0,0,0.001,0,0,0,0
735,0,0.002,0.001,0,0,0.001,0.002,0,0,0.001,0,0,0,0
736,0,0.002,0.001,0,0,0.001,0.002,0,0,0.001,0,0,0,0
737,0,0.002,0.001,0,0,0.001,0.002,0,0,0.001,0,0,0,0
738,0,0.002,0.001,0,0,0.001,0.002,0,0,0.001,0,0,0,0
739,0,0.002,0.001,0,0,0.001,0.002,0,0,0.001,0,0,0,0
740,0,0.002,0.001,0,0,0.001,0.002,0,0,0.001,0,0,0.001,0
741,0,0.002,0.001,0,0,0.001,0.002,0,0,0.001,0,0,0,0
742,0,0.002,0.001,0,0,0.001,0.002,0,0,0.001,0,0,0,0
743,0,0.002,0.001,0.001,0,0.001,0.002,0,0.001,0.001,0,0,0.001,0
744,0,0.002,0.001,0,0,0.001,0.002,0,0.001,0.001,0,0,0.001,0
745,0,0.002,0.001,0.001,0,0.001,0.002,0,0.001,0.001,0,0,0.001,0
746,0,0.002,0.001,0,0,0.001,0.002,0,0,0.001,0,0,0.001,0
747,0,0.002,0.001,0,0,0.001,0.002,0,0,0.001,0,0,0,0
748,0,0.002,0.001,0,0,0.001,0.002,0,0,0.001,0,0,0,0
749,0,0.002,0.001,0,0,0.001,0.002,0,0,0.001,0,0,0,0
750,0,0.002,0.001,0,0,0.001,0.002,0,0,0.001,0,0,0,0
751,0,0.002,0.001,0,0,0.001,0.002,0,0,0.001,0,0,0,0
752,0,0.002,0.001,0,0,0.001,0.002,0,0,0.001,0,0,0,0
753,0,0.002,0.001,0,0,0.001,0.002,0,0,0.001,0,0,0,0
754,0,0.002,0.001,0,0,0.001,0.002,0,0,0.001,0,0,0,0
755,0,0.002,0.001,0,0,0.001,0.002,0,0,0.001,0,0,0,0
756,0,0.002,0.001,0,0,0.001,0.002,0,0,0.001,0,0,0,0
757,0,0.002,0.001,0,0,0.001,0.002,0,0,0.001,0,0,0,0
758,0,0.002,0.001,0,0,0.001,0.002,0,0,0.001,0,0,0.001,0
759,0,0.003,0.001,0.001,0,0.001,0.003,0.001,0.001,0.001,0,0.001,0.001,0.001
760,0.001,0.003,0.002,0.001,0.001,0.002,0.003,0.001,0.001,0.002,0.001,0.001,0.001,0.001
761,0,0.002,0.001,0.001,0,0.001,0.002,0,0.001,0.001,0.001,0,0.001,0.001
762,0,0.002,0.001,0,0,0.001,0.002,0,0,0.001,0,0,0,0
763,0,0.002,0.001,0,0,0.001,0.002,0,0,0.001,0,0,0,0
764,0,0.002,0.001,0,0,0.001,0.002,0,0,0.001,0,0,0,0
765,0,0.002,0.001,0,0,0.001,0.002,0,0,0.001,0,0,0,0
766,0,0.002,0.001,0,0,0.001,0.002,0,0,0.001,0,0,0,0
767,0,0.002,0.001,0,0,0.001,0.002,0,0,0.001,0,0,0,0
768,0,0.002,0.001,0,0,0.001,0.002,0,0,0.001,0,0,0,0
769,0,0.002,0.001,0,0,0.001,0.002,0,0,0.001,0,0,0,0
770,0,0.002,0.001,0,0,0.001,0.002,0,0,0.001,0,0,0,0
771,0,0.002,0.001,0,0,0.001,0.002,0,0.001,0.001,0,0,0.001,0
772,0,0.002,0.001,0,0,0.001,0.002,0,0.001,0.001,0,0,0.001,0
773,0,0.002,0.001,0,0,0.001,0.002,0,0.001,0.001,0,0,0.001,0
774,0,0.002,0.001,0,0,0.001,0.002,0,0,0.001,0,0,0,0
775,0,0.002,0.001,0.001,0,0.001,0.002,0,0,0.001,0,0,0.001,0
776,0,0.002,0.001,0.001,0,0.001,0.002,0,0.001,0.001,0,0,0.001,0
777,0,0.002,0.001,0.001,0,0.001,0.002,0.001,0.001,0.001,0.001,0,0.001,0
778,0,0.002,0.001,0.001,0,0.001,0.002,0,0.001,0.001,0,0.001,0,0
779,0,0.002,0.001,0.001,0,0.001,0.002,0,0.001,0.001,0,0,0,0
780,0,0.002,0.001,0,0,0.001,0.002,0,0.001,0.001,0,0,0,0
781,0,0.002,0.001,0,0,0.001,0.002,0,0,0.001,0,0,0,0
782,0,0.002,0.001,0,0,0.001,0.002,0,0,0.001,0,0,0,0
783,0,0.002,0.001,0,0,0.001,0.002,0,0,0.001,0,0,0,0
784,0,0.002,0.001,0,0,0.001,0.002,0,0,0.001,0,0,0,0
785,0,0.002,0.001,0,0,0.001,0.002,0,0,0.001,0,0,0,0
786,0,0.002,0.001,0,0,0.001,0.002,0,0.001,0.001,0,0,0,0
787,0,0.002,0.001,0,0,0.001,0.002,0,0.001,0.001,0,0,0,0
788,0,0.002,0.001,0,0,0.001,0.002,0,0.001,0.001,0,0,0,0
789,0,0.002,0.001,0.001,0,0.001,0.002,0,0.001,0.001,0.001,0.001,0.001,0
790,0,0.002,0.001,0.001,0,0.001,0.002,0,0.001,0.001,0,0,0,0
791,0,0.002,0.001,0.001,0,0.001,0.002,0,0.001,0.001,0.001,0.001,0.001,0
792,0,0.002,0.001,0,0,0.001,0.002,0,0.001,0.001,0,0.001,0.001,0
793,0,0.002,0.001,0,0,0.001,0.002,0,0.001,0.001,0,0,0.001,0
794,0,0.002,0.001,0,0,0.001,0.002,0,0.001,0.001,0,0,0,0
795,0,0.002,0.001,0.001,0,0.001,0.002,0,0.001,0.001,0,0.001,0.001,0
796,0,0.002,0.001,0.001,0,0.001,0.002,0,0.001,0.001,0,0,0.001,0
797,0,0.002,0.001,0.001,0,0.001,0.002,0,0.001,0.001,0,0,0.001,0
798,0,0.002,0.001,0.001,0,0.001,0.002,0,0.001,0.001,0,0,0,0
799,0,0.002,0.001,0.001,0,0.001,0.002,0,0.001,0.001,0.001,0.001,0.001,0
800,0,0.002,0.001,0.001,0,0.001,0.002,0,0,0.001,0,0,0,0
801,0,0.002,0.001,0.001,0,0.001,0.002,0,0,0.001,0,0,0,0
802,0,0.002,0.001,0.001,0,0.001,0.002,0,0.001,0.001,0,0,0.001,0
803,0,0.002,0.001,0.001,0,0.001,0.002,0,0.001,0.001,0,0,0,0
804,0,0.002,0.001,0.001,0,0.001,0.002,0,0.001,0.001,0,0,0,0
805,0,0.002,0.001,0.001,0,0.001,0.002,0,0.001,0.001,0,0,0.001,0
806,0,0.002,0.001,0.001,0,0.001,0.002,0,0.001,0.001,0,0.001,0.001,0
807,0,0.002,0.001,0.001,0,0.001,0.002,0,0.001,0.001,0.001,0.001,0.001,0
808,0,0.002,0.001,0.001,0,0.001,0.002,0,0.001,0.001,0,0.001,0.001,0
809,0,0.002,0.001,0,0,0.001,0.002,0,0,0.001,0,0,0,0
810,0,0.002,0.001,0,0,0.001,0.002,0,0.001,0.001,0,0,0,0
811,0,0.002,0.001,0.001,0,0.001,0.002,0,0.001,0.001,0,0,0.001,0
812,0,0.002,0.001,0.001,0,0.001,0.002,0,0,0.001,0,0,0,0
813,0,0.002,0.001,0,0,0.001,0.002,0,0,0.001,0,0,0,0
814,0,0.002,0.001,0.001,0,0.001,0.002,0,0.001,0.001,0,0.001,0.001,0
815,0,0.002,0.001,0.001,0,0.001,0.002,0.001,0.001,0.001,0,0.001,0.001,0
816,0,0.002,0.001,0.001,0,0.001,0.002,0.001,0.001,0.001,0,0,0.001,0
817,0,0.002,0.001,0.001,0,0.001,0.002,0,0.001,0.001,0,0,0.001,0
818,0,0.002,0.001,0.001,0,0.001,0.002,0,0.001,0.001,0,0,0.001,0
819,0,0.002,0.001,0.001,0,0.001,0.002,0.001,0.001,0.001,0,0.001,0.001,0
820,0,0.002,0.001,0.001,0,0.001,0.002,0,0.001,0.001,0,0,0.001,0
821,0,0.002,0.001,0.001,0,0.001,0.002,0,0.001,0.001,0,0,0.001,0
822,0,0.002,0.001,0.001,0,0.001,0.002,0,0.001,0.001,0,0,0,0
823,0,0.002,0.001,0.001,0,0.001,0.002,0.001,0.001,0.001,0.001,0.001,0.001,0
824,0,0.002,0.001,0.001,0,0.001,0.002,0,0.001,0.001,0,0,0.001,0
825,0,0.002,0.001,0.001,0,0.001,0.002,0,0.001,0.001,0,0,0.001,0
826,0,0.002,0.001,0.001,0,0.001,0.002,0,0.001,0.001,0,0,0.001,0
827,0,0.002,0.001,0.001,0,0.001,0.002,0,0.001,0.001,0,0.001,0.001,0
828,0,0.002,0.001,0.001,0,0.001,0.002,0,0.001,0.001,0,0,0.001,0
829,0,0.002,0.001,0,0,0.001,0.002,0,0,0.001,0,0,0,0
830,0,0.002,0.001,0,0,0.001,0.002,0,0,0.001,0,0,0,0
831,0,0.002,0.001,0,0,0.001,0.002,0,0,0.001,0,0,0,0
832,0,0.002,0.001,0,0,0.001,0.002,0,0,0.001,0,0,0,0
833,0,0.002,0.001,0,0,0.001,0.002,0,0,0.001,0,0,0,0
834,0,0.002,0.001,0,0,0.001,0.002,0,0,0.001,0,0,0,0
835,0,0.002,0.001,0,0,0.001,0.002,0,0,0.001,0,0,0,0
836,0,0.002,0.001,0,0,0.001,0.002,0,0.001,0.001,0,0,0.001,0
837,0,0.002,0.001,0,0,0.001,0.002,0,0.001,0.001,0,0,0.001,0
838,0,0.002,0.001,0,0,0.001,0.002,0,0,0.001,0,0,0.001,0
839,0,0.002,0.001,0,0,0.001,0.002,0,0.001,0.001,0,0,0,0
840,0,0.002,0.001,0,0,0.001,0.002,0,0,0.001,0,0,0,0
841,0,0.002,0.001,0,0,0.001,0.002,0,0,0.001,0,0,0,0
842,0,0.002,0.001,0,0,0.001,0.002,0,0,0.001,0,0,0,0
843,0,0.002,0.001,0,0,0.001,0.002,0,0,0.001,0,0,0,0
844,0,0.002,0.001,0,0,0.001,0.002,0,0.001,0.001,0,0,0,0
845,0,0.002,0.001,0,0,0.001,0.002,0,0,0.001,0,0,0,0
846,0,0.002,0.001,0,0,0.001,0.002,0,0,0.001,0,0,0,0
847,0,0.002,0.001,0,0,0.001,0.002,0,0,0.001,0,0,0,0
848,0,0.002,0.001,0,0,0.001,0.002,0,0.001,0.001,0,0,0,0
849,0,0.002,0.001,0.001,0,0.001,0.002,0,0.001,0.001,0,0,0.001,0
850,0,0.002,0.001,0,0,0.001,0.002,0,0.001,0.001,0,0,0,0
