Wavelength nm.,MilliQ,CP2_11jul24_BOTr2,CC4_11jul24_9r2,CC3_11jul24_01r2,CC4_11jul24_6r1,CP2_11jul24_01r1,CC4_11jul24_01r1,CS1_11jul24_01r1,CC1_11jul24_01r1,CC4_11jul24_15r1,CC4_11jul24_BOTr2,CC1_11jul24_BOTr2,CC3_11jul24_15r2,CC2_11jul24_01r1,CP1_11jul24_01r2
190,0.001,0.457,0.458,0.406,0.482,0.44,0.388,0.403,0.435,0.402,0.472,0.412,0.387,0.397,0.386
191,-0.002,0.42,0.417,0.368,0.432,0.404,0.356,0.386,0.392,0.363,0.43,0.373,0.355,0.359,0.357
192,-0.001,0.386,0.382,0.334,0.385,0.37,0.324,0.371,0.347,0.332,0.391,0.339,0.32,0.324,0.334
193,-0.002,0.349,0.344,0.297,0.338,0.332,0.29,0.356,0.306,0.299,0.35,0.304,0.286,0.288,0.309
194,-0.003,0.321,0.316,0.271,0.303,0.303,0.263,0.345,0.274,0.275,0.319,0.277,0.26,0.261,0.291
195,-0.003,0.294,0.288,0.244,0.271,0.277,0.239,0.334,0.246,0.251,0.291,0.252,0.236,0.236,0.275
196,-0.003,0.272,0.265,0.222,0.246,0.255,0.217,0.325,0.223,0.23,0.268,0.231,0.214,0.215,0.263
197,-0.002,0.253,0.245,0.203,0.225,0.236,0.199,0.318,0.205,0.212,0.248,0.213,0.196,0.197,0.253
198,-0.003,0.236,0.227,0.187,0.207,0.22,0.183,0.31,0.189,0.196,0.232,0.196,0.18,0.181,0.242
199,-0.002,0.221,0.213,0.173,0.191,0.207,0.169,0.304,0.176,0.182,0.218,0.183,0.166,0.169,0.234
200,-0.002,0.209,0.2,0.161,0.179,0.195,0.157,0.298,0.164,0.17,0.207,0.171,0.156,0.158,0.227
201,-0.002,0.197,0.189,0.15,0.168,0.185,0.147,0.293,0.153,0.16,0.197,0.16,0.146,0.148,0.221
202,-0.001,0.187,0.18,0.14,0.159,0.176,0.138,0.288,0.145,0.151,0.188,0.151,0.137,0.139,0.216
203,-0.001,0.179,0.171,0.132,0.151,0.169,0.131,0.282,0.138,0.143,0.181,0.144,0.13,0.133,0.211
204,-0.001,0.171,0.164,0.125,0.144,0.162,0.124,0.277,0.131,0.136,0.174,0.137,0.123,0.126,0.206
205,-0.001,0.164,0.157,0.119,0.138,0.156,0.118,0.271,0.126,0.129,0.167,0.131,0.117,0.12,0.202
206,-0.001,0.159,0.151,0.114,0.133,0.15,0.113,0.265,0.121,0.124,0.162,0.126,0.112,0.116,0.198
207,-0.001,0.154,0.146,0.109,0.128,0.146,0.109,0.259,0.117,0.119,0.157,0.121,0.108,0.111,0.194
208,-0.001,0.149,0.141,0.105,0.124,0.142,0.105,0.252,0.113,0.114,0.152,0.117,0.104,0.108,0.19
209,-0.001,0.144,0.136,0.101,0.12,0.138,0.101,0.245,0.109,0.11,0.147,0.113,0.1,0.104,0.185
210,-0.001,0.141,0.132,0.098,0.117,0.134,0.097,0.238,0.106,0.106,0.142,0.109,0.097,0.101,0.181
211,-0.001,0.137,0.128,0.095,0.114,0.131,0.094,0.231,0.103,0.103,0.137,0.106,0.094,0.098,0.177
212,-0.001,0.133,0.124,0.092,0.111,0.128,0.091,0.222,0.101,0.1,0.133,0.103,0.092,0.095,0.173
213,-0.001,0.13,0.119,0.09,0.108,0.124,0.088,0.214,0.098,0.096,0.127,0.1,0.089,0.093,0.169
214,-0.001,0.127,0.116,0.087,0.106,0.122,0.086,0.205,0.096,0.093,0.123,0.098,0.086,0.09,0.165
215,-0.001,0.124,0.112,0.085,0.103,0.119,0.083,0.196,0.093,0.09,0.118,0.095,0.084,0.088,0.162
216,-0.001,0.121,0.108,0.082,0.101,0.116,0.081,0.188,0.091,0.088,0.113,0.093,0.082,0.086,0.158
217,-0.002,0.118,0.105,0.08,0.099,0.114,0.079,0.179,0.089,0.085,0.109,0.09,0.079,0.084,0.154
218,-0.002,0.116,0.102,0.078,0.097,0.112,0.077,0.172,0.087,0.083,0.105,0.088,0.078,0.082,0.151
219,-0.001,0.114,0.098,0.076,0.095,0.109,0.075,0.164,0.085,0.081,0.101,0.086,0.076,0.08,0.148
220,-0.002,0.112,0.096,0.075,0.093,0.107,0.073,0.157,0.084,0.079,0.096,0.085,0.074,0.078,0.145
221,-0.001,0.11,0.093,0.073,0.092,0.106,0.072,0.15,0.082,0.078,0.093,0.083,0.073,0.077,0.142
222,-0.002,0.108,0.091,0.072,0.09,0.104,0.07,0.144,0.081,0.076,0.09,0.081,0.071,0.075,0.14
223,-0.001,0.106,0.088,0.07,0.089,0.102,0.069,0.137,0.079,0.074,0.086,0.08,0.07,0.074,0.137
224,-0.001,0.104,0.086,0.069,0.087,0.101,0.068,0.132,0.078,0.073,0.083,0.078,0.068,0.072,0.135
225,-0.001,0.102,0.084,0.068,0.085,0.099,0.066,0.126,0.076,0.071,0.08,0.076,0.067,0.071,0.132
226,-0.001,0.1,0.081,0.066,0.084,0.097,0.065,0.121,0.075,0.069,0.077,0.075,0.065,0.069,0.13
227,-0.002,0.098,0.079,0.065,0.082,0.096,0.064,0.116,0.074,0.068,0.075,0.074,0.064,0.068,0.128
228,-0.001,0.097,0.078,0.064,0.081,0.094,0.062,0.112,0.072,0.067,0.072,0.072,0.063,0.067,0.126
229,-0.001,0.095,0.076,0.063,0.08,0.093,0.061,0.108,0.071,0.065,0.07,0.071,0.062,0.066,0.123
230,-0.001,0.093,0.074,0.061,0.078,0.091,0.06,0.105,0.07,0.064,0.068,0.07,0.061,0.064,0.121
231,-0.001,0.092,0.073,0.06,0.077,0.09,0.059,0.101,0.069,0.063,0.066,0.069,0.06,0.063,0.119
232,-0.001,0.09,0.071,0.059,0.076,0.089,0.058,0.099,0.068,0.061,0.065,0.068,0.059,0.062,0.117
233,-0.001,0.089,0.07,0.058,0.075,0.087,0.057,0.096,0.067,0.06,0.063,0.067,0.058,0.061,0.116
234,-0.001,0.088,0.068,0.057,0.074,0.086,0.057,0.094,0.066,0.059,0.062,0.066,0.057,0.06,0.114
235,-0.001,0.086,0.067,0.056,0.073,0.085,0.056,0.091,0.065,0.058,0.061,0.065,0.056,0.059,0.112
236,-0.001,0.085,0.066,0.055,0.072,0.084,0.055,0.089,0.064,0.057,0.059,0.064,0.055,0.058,0.11
237,-0.001,0.084,0.065,0.054,0.071,0.082,0.054,0.087,0.063,0.056,0.058,0.063,0.054,0.057,0.109
238,-0.001,0.083,0.064,0.054,0.07,0.081,0.053,0.086,0.062,0.055,0.057,0.062,0.053,0.057,0.107
239,-0.001,0.082,0.063,0.053,0.069,0.08,0.053,0.084,0.061,0.055,0.056,0.061,0.053,0.056,0.105
240,-0.001,0.081,0.062,0.052,0.068,0.079,0.052,0.083,0.061,0.054,0.055,0.06,0.052,0.055,0.104
241,-0.001,0.08,0.061,0.052,0.067,0.078,0.051,0.082,0.06,0.053,0.054,0.06,0.051,0.054,0.103
242,-0.001,0.079,0.06,0.051,0.067,0.077,0.051,0.08,0.059,0.052,0.054,0.059,0.051,0.054,0.101
243,-0.001,0.078,0.059,0.051,0.066,0.077,0.05,0.079,0.059,0.052,0.053,0.058,0.05,0.053,0.1
244,-0.001,0.077,0.059,0.05,0.065,0.076,0.05,0.078,0.058,0.051,0.052,0.058,0.05,0.053,0.099
245,-0.001,0.076,0.058,0.049,0.065,0.075,0.049,0.077,0.058,0.051,0.052,0.057,0.049,0.052,0.098
246,-0.001,0.076,0.057,0.049,0.064,0.075,0.049,0.076,0.057,0.05,0.051,0.057,0.049,0.052,0.096
247,-0.001,0.075,0.057,0.049,0.063,0.074,0.048,0.075,0.056,0.049,0.05,0.056,0.048,0.051,0.095
248,-0.001,0.074,0.056,0.048,0.063,0.073,0.048,0.074,0.056,0.049,0.05,0.056,0.048,0.051,0.094
249,-0.001,0.074,0.055,0.048,0.062,0.073,0.047,0.074,0.056,0.049,0.049,0.055,0.048,0.05,0.093
250,-0.001,0.073,0.055,0.048,0.062,0.072,0.047,0.073,0.055,0.048,0.049,0.055,0.047,0.05,0.093
251,-0.001,0.073,0.055,0.047,0.061,0.072,0.047,0.073,0.055,0.048,0.048,0.055,0.047,0.05,0.092
252,-0.001,0.072,0.054,0.047,0.061,0.071,0.046,0.072,0.054,0.048,0.048,0.055,0.047,0.049,0.091
253,-0.001,0.072,0.054,0.047,0.06,0.071,0.046,0.071,0.054,0.047,0.047,0.054,0.047,0.049,0.09
254,-0.001,0.072,0.053,0.046,0.06,0.07,0.046,0.07,0.054,0.047,0.047,0.054,0.046,0.049,0.09
255,-0.001,0.071,0.053,0.046,0.059,0.07,0.045,0.07,0.053,0.047,0.046,0.053,0.046,0.048,0.089
256,-0.001,0.071,0.052,0.046,0.059,0.069,0.045,0.069,0.053,0.046,0.046,0.053,0.045,0.048,0.088
257,-0.001,0.07,0.052,0.045,0.059,0.069,0.045,0.069,0.053,0.046,0.046,0.053,0.045,0.047,0.087
258,-0.001,0.07,0.051,0.045,0.058,0.068,0.044,0.068,0.052,0.046,0.045,0.052,0.045,0.047,0.087
259,-0.001,0.069,0.051,0.045,0.058,0.068,0.044,0.068,0.052,0.045,0.045,0.052,0.045,0.047,0.086
260,-0.001,0.069,0.051,0.044,0.057,0.067,0.043,0.067,0.051,0.045,0.044,0.052,0.044,0.046,0.085
261,-0.001,0.068,0.05,0.044,0.057,0.067,0.043,0.067,0.051,0.044,0.044,0.051,0.044,0.046,0.085
262,-0.001,0.068,0.05,0.043,0.056,0.066,0.043,0.066,0.051,0.044,0.043,0.051,0.043,0.046,0.084
263,-0.001,0.067,0.049,0.043,0.056,0.066,0.042,0.066,0.05,0.044,0.043,0.05,0.043,0.045,0.083
264,-0.001,0.066,0.049,0.042,0.055,0.065,0.042,0.065,0.05,0.043,0.042,0.05,0.042,0.044,0.082
265,-0.001,0.066,0.048,0.042,0.055,0.064,0.041,0.065,0.049,0.043,0.042,0.049,0.042,0.044,0.081
266,-0.001,0.065,0.048,0.041,0.054,0.063,0.041,0.064,0.048,0.042,0.041,0.049,0.041,0.043,0.081
267,-0.001,0.064,0.047,0.041,0.053,0.063,0.04,0.063,0.048,0.042,0.041,0.048,0.041,0.043,0.079
268,-0.001,0.063,0.047,0.04,0.053,0.062,0.039,0.063,0.047,0.041,0.04,0.047,0.04,0.042,0.078
269,-0.001,0.063,0.046,0.039,0.052,0.061,0.039,0.062,0.047,0.041,0.04,0.047,0.04,0.042,0.078
270,-0.001,0.062,0.046,0.039,0.052,0.06,0.038,0.062,0.046,0.04,0.039,0.046,0.039,0.041,0.077
271,-0.001,0.061,0.045,0.038,0.051,0.059,0.038,0.061,0.045,0.039,0.039,0.045,0.038,0.04,0.076
272,-0.001,0.06,0.044,0.037,0.05,0.059,0.037,0.06,0.045,0.039,0.038,0.044,0.037,0.039,0.075
273,-0.001,0.059,0.044,0.037,0.05,0.058,0.036,0.06,0.044,0.038,0.037,0.044,0.037,0.039,0.074
274,-0.001,0.059,0.043,0.036,0.049,0.057,0.036,0.059,0.043,0.038,0.037,0.043,0.036,0.038,0.073
275,-0.001,0.058,0.042,0.035,0.048,0.056,0.035,0.058,0.042,0.037,0.036,0.042,0.035,0.037,0.072
276,-0.001,0.057,0.042,0.035,0.048,0.055,0.034,0.058,0.042,0.036,0.036,0.041,0.035,0.037,0.071
277,-0.001,0.056,0.041,0.034,0.047,0.054,0.033,0.057,0.041,0.035,0.035,0.041,0.034,0.036,0.07
278,-0.001,0.055,0.041,0.033,0.046,0.053,0.033,0.057,0.04,0.035,0.034,0.04,0.033,0.035,0.069
279,-0.001,0.054,0.04,0.032,0.046,0.053,0.032,0.056,0.039,0.034,0.034,0.039,0.032,0.035,0.068
280,-0.001,0.053,0.039,0.032,0.045,0.052,0.031,0.056,0.039,0.033,0.033,0.038,0.032,0.034,0.068
281,-0.001,0.052,0.039,0.031,0.044,0.051,0.03,0.055,0.038,0.033,0.033,0.037,0.031,0.033,0.067
282,-0.001,0.051,0.038,0.03,0.044,0.05,0.03,0.054,0.037,0.032,0.032,0.036,0.03,0.032,0.066
283,-0.001,0.05,0.037,0.03,0.043,0.049,0.029,0.053,0.036,0.031,0.031,0.036,0.029,0.031,0.065
284,-0.001,0.049,0.037,0.029,0.042,0.048,0.028,0.053,0.036,0.03,0.031,0.035,0.029,0.031,0.064
285,-0.001,0.048,0.036,0.028,0.042,0.047,0.028,0.052,0.035,0.029,0.03,0.034,0.028,0.03,0.063
286,-0.001,0.047,0.036,0.027,0.041,0.046,0.027,0.051,0.034,0.029,0.03,0.034,0.027,0.029,0.062
287,-0.001,0.046,0.035,0.027,0.04,0.045,0.026,0.05,0.034,0.028,0.029,0.033,0.027,0.029,0.061
288,-0.001,0.045,0.034,0.026,0.039,0.044,0.025,0.05,0.033,0.027,0.028,0.032,0.026,0.028,0.06
289,-0.001,0.045,0.034,0.025,0.039,0.044,0.025,0.049,0.032,0.026,0.028,0.031,0.025,0.027,0.059
290,-0.001,0.043,0.033,0.025,0.038,0.043,0.024,0.048,0.032,0.026,0.027,0.03,0.025,0.026,0.058
291,-0.001,0.043,0.032,0.024,0.037,0.042,0.023,0.048,0.031,0.025,0.027,0.03,0.024,0.026,0.057
292,-0.001,0.042,0.032,0.023,0.037,0.041,0.023,0.047,0.03,0.024,0.026,0.029,0.023,0.025,0.056
293,-0.001,0.041,0.031,0.023,0.036,0.04,0.022,0.046,0.03,0.024,0.026,0.028,0.023,0.024,0.055
294,-0.001,0.04,0.03,0.022,0.035,0.04,0.022,0.045,0.029,0.023,0.025,0.028,0.022,0.024,0.054
295,-0.001,0.04,0.03,0.022,0.035,0.039,0.021,0.045,0.028,0.022,0.025,0.027,0.022,0.023,0.053
296,-0.001,0.039,0.029,0.021,0.034,0.038,0.021,0.044,0.028,0.022,0.024,0.026,0.021,0.023,0.052
297,-0.001,0.038,0.029,0.021,0.034,0.038,0.02,0.044,0.027,0.021,0.024,0.026,0.02,0.022,0.052
298,-0.001,0.038,0.028,0.02,0.033,0.037,0.02,0.043,0.027,0.021,0.023,0.025,0.02,0.022,0.051
299,-0.001,0.037,0.028,0.019,0.033,0.036,0.019,0.042,0.026,0.02,0.022,0.025,0.019,0.021,0.05
300,-0.001,0.036,0.027,0.019,0.032,0.036,0.019,0.042,0.026,0.019,0.022,0.024,0.019,0.021,0.049
301,-0.001,0.035,0.027,0.019,0.032,0.035,0.018,0.041,0.025,0.019,0.022,0.024,0.019,0.021,0.049
302,-0.001,0.035,0.026,0.018,0.031,0.035,0.018,0.04,0.025,0.018,0.021,0.023,0.018,0.02,0.048
303,-0.001,0.034,0.025,0.018,0.031,0.034,0.017,0.04,0.024,0.018,0.021,0.023,0.018,0.02,0.047
304,-0.001,0.034,0.025,0.017,0.03,0.034,0.017,0.039,0.024,0.017,0.02,0.022,0.017,0.019,0.046
305,-0.001,0.033,0.025,0.017,0.03,0.033,0.017,0.039,0.024,0.017,0.02,0.022,0.017,0.019,0.046
306,-0.001,0.032,0.024,0.017,0.03,0.033,0.016,0.038,0.023,0.017,0.02,0.022,0.017,0.019,0.045
307,-0.001,0.032,0.024,0.016,0.029,0.032,0.016,0.038,0.023,0.016,0.019,0.021,0.016,0.018,0.044
308,-0.001,0.031,0.024,0.016,0.029,0.032,0.016,0.037,0.022,0.016,0.019,0.021,0.016,0.018,0.044
309,0,0.031,0.023,0.015,0.028,0.031,0.015,0.036,0.022,0.016,0.018,0.02,0.016,0.018,0.043
310,-0.001,0.03,0.023,0.015,0.028,0.031,0.015,0.036,0.021,0.015,0.018,0.02,0.015,0.017,0.042
311,-0.001,0.03,0.022,0.015,0.028,0.03,0.015,0.035,0.021,0.015,0.017,0.02,0.015,0.017,0.042
312,-0.001,0.03,0.022,0.015,0.028,0.03,0.014,0.035,0.021,0.015,0.017,0.019,0.015,0.017,0.041
313,-0.001,0.029,0.022,0.014,0.027,0.03,0.014,0.034,0.021,0.014,0.017,0.019,0.014,0.016,0.04
314,0,0.029,0.021,0.014,0.027,0.029,0.014,0.034,0.02,0.014,0.017,0.019,0.014,0.016,0.04
315,-0.001,0.028,0.021,0.014,0.026,0.029,0.013,0.033,0.02,0.013,0.016,0.018,0.014,0.016,0.039
316,-0.001,0.027,0.02,0.014,0.026,0.028,0.013,0.033,0.019,0.013,0.016,0.018,0.014,0.016,0.039
317,-0.001,0.027,0.02,0.014,0.026,0.028,0.013,0.032,0.019,0.013,0.016,0.018,0.013,0.015,0.038
318,-0.001,0.027,0.02,0.013,0.025,0.027,0.013,0.032,0.019,0.012,0.015,0.017,0.013,0.015,0.038
319,-0.001,0.026,0.019,0.013,0.025,0.027,0.012,0.031,0.019,0.012,0.015,0.017,0.012,0.014,0.037
320,-0.001,0.026,0.019,0.013,0.025,0.027,0.012,0.031,0.018,0.012,0.015,0.017,0.012,0.014,0.036
321,-0.001,0.026,0.019,0.013,0.024,0.027,0.012,0.03,0.018,0.012,0.015,0.017,0.012,0.014,0.036
322,-0.001,0.025,0.019,0.012,0.024,0.026,0.012,0.03,0.018,0.011,0.014,0.016,0.012,0.014,0.036
323,-0.001,0.025,0.018,0.012,0.024,0.026,0.011,0.03,0.018,0.011,0.014,0.016,0.012,0.014,0.035
324,-0.001,0.025,0.018,0.012,0.024,0.026,0.011,0.03,0.018,0.011,0.014,0.016,0.012,0.014,0.035
325,-0.001,0.024,0.018,0.011,0.024,0.025,0.011,0.029,0.017,0.011,0.014,0.016,0.011,0.014,0.034
326,-0.001,0.024,0.018,0.011,0.023,0.025,0.011,0.029,0.017,0.011,0.013,0.015,0.011,0.013,0.034
327,-0.001,0.024,0.017,0.011,0.023,0.025,0.011,0.029,0.017,0.01,0.013,0.015,0.011,0.013,0.033
328,-0.001,0.023,0.017,0.011,0.023,0.024,0.01,0.028,0.017,0.01,0.013,0.015,0.011,0.013,0.033
329,0,0.023,0.017,0.011,0.023,0.024,0.01,0.028,0.017,0.01,0.013,0.015,0.011,0.013,0.033
330,0,0.023,0.017,0.011,0.023,0.024,0.01,0.027,0.016,0.01,0.013,0.015,0.011,0.013,0.032
331,-0.001,0.022,0.016,0.011,0.022,0.023,0.01,0.027,0.016,0.01,0.012,0.014,0.01,0.012,0.032
332,-0.001,0.022,0.016,0.01,0.022,0.023,0.01,0.026,0.016,0.01,0.012,0.014,0.01,0.012,0.031
333,0,0.022,0.016,0.01,0.022,0.023,0.009,0.026,0.016,0.009,0.012,0.014,0.01,0.012,0.031
334,-0.001,0.021,0.016,0.01,0.021,0.023,0.009,0.025,0.015,0.009,0.012,0.013,0.01,0.012,0.03
335,-0.001,0.021,0.015,0.01,0.021,0.022,0.009,0.025,0.015,0.009,0.012,0.013,0.01,0.011,0.029
336,0,0.021,0.015,0.01,0.021,0.022,0.009,0.025,0.015,0.009,0.011,0.013,0.009,0.011,0.029
337,-0.001,0.02,0.015,0.009,0.02,0.022,0.009,0.025,0.014,0.009,0.011,0.013,0.009,0.011,0.029
338,-0.001,0.02,0.015,0.009,0.02,0.021,0.008,0.024,0.014,0.009,0.011,0.012,0.009,0.011,0.028
339,-0.001,0.02,0.015,0.01,0.02,0.021,0.009,0.024,0.014,0.009,0.011,0.013,0.009,0.011,0.028
340,0,0.021,0.016,0.01,0.021,0.022,0.01,0.025,0.015,0.01,0.012,0.013,0.01,0.012,0.029
341,0,0.02,0.015,0.009,0.02,0.021,0.009,0.023,0.014,0.009,0.011,0.013,0.009,0.011,0.028
342,-0.001,0.019,0.014,0.009,0.019,0.021,0.008,0.023,0.014,0.008,0.01,0.012,0.008,0.01,0.027
343,-0.001,0.019,0.014,0.008,0.019,0.02,0.008,0.023,0.014,0.008,0.01,0.012,0.008,0.01,0.026
344,-0.001,0.019,0.014,0.008,0.019,0.02,0.008,0.022,0.013,0.008,0.01,0.011,0.008,0.01,0.026
345,0,0.018,0.014,0.008,0.019,0.02,0.008,0.022,0.013,0.008,0.009,0.011,0.008,0.01,0.026
346,-0.001,0.018,0.013,0.008,0.019,0.019,0.007,0.022,0.013,0.007,0.009,0.011,0.008,0.009,0.025
347,0,0.018,0.013,0.008,0.019,0.019,0.007,0.022,0.013,0.008,0.009,0.011,0.008,0.01,0.025
348,0,0.017,0.013,0.008,0.018,0.019,0.007,0.021,0.013,0.007,0.009,0.011,0.007,0.009,0.025
349,-0.001,0.017,0.013,0.008,0.018,0.018,0.007,0.021,0.013,0.007,0.009,0.011,0.007,0.009,0.024
350,-0.001,0.017,0.012,0.007,0.018,0.018,0.007,0.02,0.012,0.007,0.009,0.01,0.007,0.009,0.024
351,-0.001,0.017,0.013,0.008,0.018,0.018,0.007,0.02,0.012,0.007,0.009,0.011,0.008,0.009,0.024
352,0,0.017,0.012,0.007,0.018,0.018,0.007,0.02,0.012,0.007,0.008,0.011,0.007,0.009,0.023
353,0,0.016,0.012,0.007,0.017,0.018,0.007,0.02,0.012,0.007,0.009,0.01,0.007,0.009,0.023
354,-0.001,0.016,0.012,0.007,0.017,0.018,0.007,0.019,0.012,0.006,0.008,0.01,0.007,0.008,0.023
355,-0.001,0.016,0.012,0.007,0.017,0.017,0.006,0.019,0.012,0.006,0.008,0.01,0.007,0.008,0.022
356,-0.001,0.016,0.011,0.007,0.017,0.017,0.006,0.019,0.011,0.006,0.008,0.01,0.007,0.008,0.022
357,-0.001,0.015,0.011,0.007,0.017,0.017,0.006,0.018,0.011,0.006,0.008,0.009,0.006,0.008,0.021
358,-0.001,0.015,0.011,0.007,0.016,0.016,0.006,0.018,0.011,0.005,0.007,0.009,0.006,0.008,0.021
359,-0.001,0.015,0.011,0.007,0.016,0.016,0.006,0.018,0.011,0.006,0.007,0.009,0.006,0.008,0.021
360,0,0.015,0.011,0.006,0.016,0.017,0.006,0.018,0.011,0.006,0.007,0.009,0.006,0.008,0.021
361,-0.001,0.015,0.01,0.006,0.016,0.016,0.005,0.017,0.01,0.006,0.007,0.009,0.006,0.008,0.02
362,-0.001,0.014,0.01,0.006,0.016,0.016,0.005,0.017,0.011,0.006,0.007,0.009,0.006,0.007,0.02
363,-0.001,0.014,0.01,0.006,0.015,0.016,0.005,0.017,0.01,0.005,0.006,0.008,0.006,0.007,0.019
364,-0.001,0.014,0.01,0.006,0.015,0.015,0.005,0.016,0.01,0.005,0.006,0.008,0.005,0.007,0.019
365,-0.001,0.013,0.01,0.006,0.015,0.015,0.005,0.016,0.01,0.005,0.006,0.008,0.005,0.007,0.019
366,-0.001,0.014,0.01,0.006,0.015,0.015,0.005,0.016,0.01,0.005,0.006,0.008,0.006,0.007,0.019
367,-0.001,0.013,0.01,0.006,0.015,0.015,0.005,0.016,0.01,0.005,0.006,0.008,0.005,0.007,0.018
368,-0.001,0.013,0.009,0.006,0.015,0.015,0.005,0.015,0.01,0.005,0.006,0.008,0.005,0.007,0.018
369,-0.001,0.013,0.009,0.006,0.015,0.015,0.005,0.015,0.01,0.005,0.006,0.008,0.005,0.007,0.018
370,-0.001,0.013,0.009,0.005,0.014,0.014,0.005,0.015,0.009,0.005,0.006,0.008,0.005,0.006,0.017
371,-0.001,0.012,0.009,0.005,0.014,0.014,0.005,0.015,0.009,0.005,0.006,0.007,0.005,0.006,0.017
372,-0.001,0.012,0.009,0.005,0.014,0.014,0.005,0.014,0.009,0.005,0.005,0.008,0.005,0.006,0.017
373,-0.001,0.012,0.009,0.005,0.014,0.014,0.005,0.014,0.009,0.004,0.005,0.007,0.005,0.006,0.017
374,-0.001,0.012,0.009,0.005,0.014,0.013,0.004,0.014,0.009,0.004,0.005,0.007,0.005,0.006,0.016
375,0,0.012,0.009,0.005,0.014,0.013,0.004,0.014,0.009,0.004,0.005,0.007,0.005,0.006,0.016
376,0,0.012,0.008,0.005,0.014,0.013,0.004,0.014,0.009,0.004,0.005,0.007,0.005,0.006,0.016
377,0,0.012,0.008,0.005,0.014,0.013,0.004,0.014,0.009,0.004,0.005,0.007,0.005,0.006,0.016
378,0,0.011,0.008,0.005,0.013,0.013,0.004,0.013,0.009,0.004,0.005,0.007,0.005,0.006,0.016
379,-0.001,0.011,0.008,0.005,0.013,0.013,0.004,0.013,0.009,0.004,0.005,0.007,0.004,0.006,0.015
380,-0.001,0.011,0.008,0.005,0.013,0.012,0.004,0.013,0.008,0.004,0.005,0.007,0.004,0.005,0.015
381,0,0.011,0.008,0.005,0.013,0.013,0.004,0.013,0.008,0.004,0.005,0.007,0.004,0.006,0.015
382,0,0.011,0.008,0.005,0.013,0.012,0.004,0.013,0.008,0.004,0.005,0.007,0.004,0.005,0.015
383,-0.001,0.011,0.008,0.005,0.013,0.012,0.004,0.012,0.008,0.004,0.004,0.007,0.004,0.005,0.015
384,0,0.011,0.008,0.004,0.013,0.012,0.004,0.012,0.008,0.004,0.004,0.006,0.004,0.005,0.014
385,-0.001,0.01,0.008,0.004,0.013,0.012,0.004,0.012,0.008,0.004,0.004,0.006,0.004,0.005,0.014
386,-0.001,0.01,0.007,0.004,0.013,0.012,0.004,0.012,0.008,0.004,0.004,0.006,0.004,0.005,0.014
387,-0.001,0.01,0.007,0.004,0.012,0.012,0.004,0.011,0.008,0.003,0.004,0.006,0.004,0.005,0.014
388,-0.001,0.01,0.007,0.004,0.012,0.011,0.003,0.011,0.007,0.003,0.004,0.006,0.004,0.005,0.013
389,0,0.01,0.007,0.004,0.012,0.011,0.003,0.011,0.007,0.003,0.004,0.006,0.004,0.005,0.013
390,-0.001,0.009,0.007,0.004,0.012,0.011,0.003,0.011,0.007,0.003,0.004,0.006,0.003,0.005,0.013
391,-0.001,0.009,0.007,0.004,0.012,0.011,0.003,0.011,0.007,0.003,0.004,0.006,0.003,0.005,0.013
392,-0.001,0.009,0.007,0.004,0.012,0.011,0.003,0.011,0.007,0.003,0.004,0.006,0.003,0.005,0.013
393,-0.001,0.009,0.007,0.004,0.012,0.011,0.003,0.01,0.007,0.003,0.003,0.006,0.003,0.005,0.012
394,-0.001,0.009,0.007,0.004,0.012,0.011,0.003,0.01,0.007,0.003,0.003,0.005,0.003,0.005,0.012
395,-0.001,0.009,0.007,0.004,0.012,0.011,0.003,0.01,0.007,0.003,0.003,0.005,0.003,0.005,0.012
396,-0.001,0.009,0.006,0.003,0.012,0.01,0.003,0.01,0.007,0.003,0.003,0.005,0.003,0.004,0.012
397,-0.001,0.009,0.006,0.003,0.011,0.01,0.003,0.01,0.007,0.003,0.003,0.005,0.003,0.004,0.012
398,-0.001,0.008,0.006,0.003,0.011,0.01,0.003,0.01,0.006,0.003,0.003,0.005,0.003,0.004,0.011
399,-0.001,0.008,0.006,0.003,0.011,0.01,0.003,0.01,0.006,0.003,0.003,0.005,0.003,0.004,0.011
400,-0.001,0.008,0.006,0.003,0.011,0.01,0.003,0.009,0.006,0.003,0.003,0.005,0.003,0.004,0.011
401,-0.001,0.008,0.006,0.003,0.011,0.01,0.003,0.009,0.006,0.003,0.003,0.005,0.003,0.004,0.011
402,-0.001,0.008,0.006,0.003,0.011,0.01,0.003,0.009,0.006,0.003,0.003,0.005,0.003,0.004,0.011
403,-0.001,0.008,0.006,0.003,0.011,0.01,0.002,0.009,0.006,0.003,0.003,0.005,0.003,0.004,0.011
404,-0.001,0.008,0.006,0.003,0.011,0.009,0.002,0.009,0.006,0.002,0.003,0.005,0.003,0.004,0.011
405,-0.001,0.008,0.006,0.003,0.011,0.009,0.002,0.009,0.006,0.002,0.003,0.005,0.003,0.004,0.01
406,-0.001,0.007,0.006,0.003,0.011,0.009,0.002,0.009,0.006,0.002,0.003,0.005,0.003,0.004,0.01
407,0,0.007,0.006,0.003,0.01,0.009,0.002,0.009,0.006,0.002,0.003,0.005,0.003,0.004,0.01
408,-0.001,0.007,0.006,0.003,0.01,0.009,0.002,0.008,0.006,0.002,0.003,0.004,0.002,0.004,0.01
409,-0.001,0.007,0.006,0.003,0.01,0.009,0.002,0.008,0.006,0.002,0.002,0.004,0.002,0.004,0.01
410,0,0.007,0.006,0.003,0.01,0.009,0.002,0.008,0.006,0.002,0.003,0.004,0.003,0.004,0.01
411,-0.001,0.007,0.005,0.003,0.01,0.009,0.002,0.008,0.006,0.002,0.003,0.004,0.003,0.003,0.01
412,-0.001,0.007,0.005,0.003,0.01,0.009,0.002,0.008,0.006,0.002,0.002,0.004,0.002,0.004,0.01
413,-0.001,0.007,0.005,0.003,0.01,0.009,0.002,0.008,0.006,0.002,0.002,0.004,0.002,0.004,0.01
414,-0.001,0.007,0.005,0.003,0.01,0.008,0.002,0.008,0.006,0.002,0.002,0.004,0.002,0.004,0.009
415,0,0.007,0.005,0.003,0.01,0.008,0.002,0.008,0.006,0.002,0.002,0.004,0.002,0.004,0.009
416,0,0.007,0.005,0.003,0.01,0.008,0.002,0.008,0.006,0.002,0.002,0.004,0.002,0.004,0.009
417,-0.001,0.006,0.005,0.003,0.01,0.008,0.002,0.007,0.005,0.002,0.002,0.004,0.002,0.003,0.009
418,-0.001,0.006,0.005,0.003,0.01,0.008,0.002,0.007,0.005,0.002,0.002,0.004,0.002,0.003,0.009
419,-0.001,0.006,0.005,0.003,0.01,0.008,0.002,0.007,0.005,0.002,0.002,0.004,0.002,0.003,0.009
420,0,0.006,0.005,0.003,0.01,0.008,0.002,0.007,0.005,0.002,0.002,0.004,0.002,0.003,0.009
421,0,0.006,0.005,0.002,0.01,0.008,0.002,0.007,0.005,0.002,0.002,0.004,0.002,0.003,0.009
422,0,0.006,0.005,0.002,0.009,0.008,0.002,0.007,0.005,0.002,0.002,0.004,0.002,0.003,0.008
423,-0.001,0.006,0.005,0.002,0.009,0.008,0.002,0.007,0.005,0.002,0.002,0.004,0.002,0.003,0.008
424,-0.001,0.006,0.005,0.002,0.009,0.008,0.002,0.007,0.005,0.002,0.002,0.004,0.002,0.003,0.008
425,0,0.006,0.005,0.002,0.009,0.008,0.002,0.007,0.005,0.002,0.002,0.004,0.002,0.003,0.008
426,-0.001,0.006,0.005,0.002,0.009,0.008,0.002,0.007,0.005,0.002,0.002,0.004,0.002,0.003,0.008
427,0,0.006,0.005,0.002,0.009,0.007,0.002,0.007,0.005,0.002,0.002,0.004,0.002,0.003,0.008
428,0,0.005,0.004,0.002,0.009,0.007,0.002,0.006,0.005,0.002,0.002,0.004,0.002,0.003,0.008
429,0,0.005,0.005,0.002,0.009,0.007,0.002,0.006,0.005,0.002,0.002,0.003,0.002,0.003,0.008
430,-0.001,0.005,0.004,0.002,0.009,0.007,0.001,0.006,0.005,0.002,0.002,0.003,0.002,0.003,0.008
431,-0.001,0.005,0.004,0.002,0.009,0.007,0.002,0.006,0.005,0.002,0.002,0.003,0.002,0.003,0.008
432,-0.001,0.005,0.004,0.002,0.009,0.007,0.001,0.006,0.005,0.002,0.002,0.003,0.002,0.003,0.008
433,-0.001,0.005,0.004,0.002,0.009,0.007,0.002,0.006,0.004,0.002,0.001,0.003,0.002,0.003,0.007
434,-0.001,0.005,0.004,0.002,0.009,0.007,0.001,0.006,0.004,0.002,0.001,0.003,0.002,0.003,0.007
435,0,0.005,0.004,0.002,0.009,0.007,0.001,0.006,0.004,0.002,0.001,0.003,0.002,0.003,0.007
436,-0.001,0.005,0.004,0.002,0.009,0.007,0.001,0.006,0.004,0.002,0.001,0.003,0.002,0.003,0.007
437,-0.001,0.005,0.004,0.002,0.009,0.007,0.001,0.006,0.004,0.002,0.001,0.003,0.002,0.003,0.007
438,-0.001,0.005,0.004,0.002,0.009,0.007,0.001,0.006,0.004,0.001,0.001,0.003,0.002,0.003,0.007
439,-0.001,0.005,0.004,0.002,0.009,0.007,0.001,0.005,0.004,0.002,0.001,0.003,0.002,0.003,0.007
440,-0.001,0.005,0.004,0.002,0.008,0.006,0.001,0.005,0.004,0.001,0.001,0.003,0.002,0.002,0.007
441,-0.001,0.005,0.004,0.002,0.008,0.006,0.001,0.005,0.004,0.001,0.001,0.003,0.001,0.002,0.007
442,0,0.004,0.004,0.002,0.008,0.006,0.001,0.005,0.004,0.001,0.001,0.003,0.001,0.002,0.007
443,-0.001,0.004,0.004,0.002,0.008,0.006,0.001,0.005,0.004,0.001,0.001,0.003,0.001,0.002,0.007
444,-0.001,0.004,0.004,0.002,0.008,0.006,0.001,0.005,0.004,0.001,0.001,0.003,0.001,0.002,0.007
445,-0.001,0.004,0.004,0.002,0.008,0.006,0.001,0.005,0.004,0.001,0.001,0.003,0.001,0.002,0.006
446,-0.001,0.004,0.004,0.002,0.008,0.006,0.001,0.005,0.004,0.001,0.001,0.003,0.001,0.002,0.006
447,-0.001,0.004,0.004,0.002,0.008,0.006,0.001,0.005,0.004,0.001,0.001,0.003,0.001,0.002,0.006
448,-0.001,0.004,0.004,0.002,0.008,0.006,0.001,0.005,0.004,0.001,0.001,0.003,0.001,0.002,0.006
449,-0.001,0.004,0.004,0.002,0.008,0.006,0.001,0.005,0.004,0.001,0.001,0.003,0.001,0.002,0.006
450,-0.001,0.004,0.004,0.002,0.008,0.006,0.001,0.005,0.004,0.001,0.001,0.003,0.001,0.002,0.006
451,-0.001,0.004,0.004,0.002,0.008,0.006,0.001,0.005,0.004,0.001,0.001,0.003,0.001,0.002,0.006
452,-0.001,0.004,0.004,0.002,0.008,0.006,0.001,0.005,0.004,0.001,0.001,0.003,0.001,0.002,0.006
453,-0.001,0.004,0.003,0.002,0.008,0.006,0.001,0.005,0.004,0.001,0.001,0.003,0.001,0.002,0.006
454,-0.001,0.004,0.003,0.002,0.008,0.006,0.001,0.004,0.004,0.001,0.001,0.003,0.001,0.002,0.006
455,-0.001,0.004,0.003,0.002,0.008,0.006,0.001,0.004,0.004,0.001,0.001,0.003,0.001,0.002,0.006
456,0,0.004,0.003,0.002,0.008,0.006,0.001,0.004,0.004,0.001,0.001,0.003,0.001,0.002,0.006
457,0,0.004,0.003,0.002,0.008,0.005,0.001,0.004,0.004,0.001,0.001,0.003,0.001,0.002,0.006
458,-0.001,0.004,0.003,0.002,0.008,0.005,0.001,0.004,0.004,0.001,0.001,0.002,0.001,0.002,0.006
459,-0.001,0.004,0.003,0.002,0.008,0.005,0.001,0.004,0.004,0.001,0.001,0.002,0.001,0.002,0.006
460,-0.001,0.004,0.003,0.002,0.008,0.005,0.001,0.004,0.004,0.001,0.001,0.003,0.001,0.002,0.006
461,0,0.004,0.003,0.002,0.008,0.005,0.001,0.004,0.004,0.001,0.001,0.003,0.001,0.002,0.006
462,0,0.004,0.003,0.002,0.008,0.005,0.001,0.004,0.004,0.001,0.001,0.003,0.001,0.002,0.006
463,0,0.004,0.003,0.002,0.008,0.005,0.001,0.004,0.004,0.001,0.001,0.003,0.001,0.002,0.006
464,0,0.003,0.003,0.002,0.008,0.005,0.001,0.004,0.003,0.001,0.001,0.003,0.001,0.002,0.005
465,0,0.003,0.003,0.002,0.008,0.005,0.001,0.004,0.003,0.001,0.001,0.002,0.001,0.002,0.005
466,-0.001,0.003,0.003,0.001,0.008,0.005,0.001,0.004,0.003,0.001,0.001,0.002,0.001,0.002,0.005
467,0,0.003,0.003,0.001,0.008,0.005,0.001,0.004,0.003,0.001,0.001,0.002,0.001,0.002,0.005
468,0,0.003,0.003,0.001,0.008,0.005,0.001,0.004,0.003,0.001,0.001,0.002,0.001,0.002,0.005
469,0,0.003,0.003,0.001,0.008,0.005,0.001,0.004,0.003,0.001,0.001,0.002,0.001,0.002,0.005
470,0,0.003,0.003,0.001,0.007,0.005,0.001,0.004,0.003,0.001,0.001,0.002,0.001,0.002,0.005
471,0,0.003,0.003,0.001,0.007,0.005,0.001,0.004,0.003,0.001,0.001,0.002,0.001,0.002,0.005
472,0,0.003,0.003,0.001,0.007,0.005,0.001,0.004,0.003,0.001,0.001,0.002,0.001,0.002,0.005
473,0,0.003,0.003,0.001,0.007,0.005,0.001,0.004,0.003,0.001,0.001,0.002,0.001,0.002,0.005
474,0,0.003,0.003,0.001,0.007,0.005,0.001,0.004,0.003,0.001,0.001,0.002,0.001,0.002,0.005
475,0,0.003,0.003,0.001,0.007,0.005,0.001,0.004,0.003,0.001,0.001,0.002,0.001,0.002,0.005
476,-0.001,0.003,0.003,0.001,0.007,0.005,0.001,0.004,0.003,0.001,0.001,0.002,0.001,0.002,0.005
477,-0.001,0.003,0.003,0.001,0.007,0.005,0.001,0.004,0.003,0.001,0,0.002,0.001,0.002,0.005
478,-0.001,0.003,0.003,0.001,0.007,0.005,0.001,0.003,0.003,0.001,0,0.002,0.001,0.002,0.005
479,-0.001,0.003,0.003,0.001,0.007,0.005,0.001,0.003,0.003,0.001,0,0.002,0.001,0.002,0.005
480,-0.001,0.003,0.003,0.001,0.007,0.005,0.001,0.003,0.003,0.001,0,0.002,0.001,0.002,0.005
481,-0.001,0.003,0.003,0.001,0.007,0.005,0.001,0.003,0.003,0.001,0,0.002,0.001,0.002,0.005
482,-0.001,0.003,0.003,0.001,0.007,0.005,0.001,0.003,0.003,0.001,0,0.002,0.001,0.002,0.005
483,-0.001,0.003,0.003,0.001,0.007,0.004,0.001,0.003,0.003,0.001,0,0.002,0.001,0.002,0.005
484,-0.001,0.003,0.003,0.001,0.007,0.004,0.001,0.003,0.003,0.001,0,0.002,0.001,0.002,0.005
485,-0.001,0.003,0.003,0.001,0.007,0.004,0.001,0.003,0.003,0.001,0,0.002,0.001,0.002,0.005
486,-0.001,0.003,0.003,0.001,0.007,0.004,0.001,0.003,0.003,0.001,0,0.002,0.001,0.002,0.005
487,-0.001,0.003,0.003,0.001,0.007,0.004,0.001,0.003,0.003,0.001,0,0.002,0.001,0.002,0.005
488,-0.001,0.003,0.003,0.001,0.007,0.004,0,0.003,0.003,0.001,0,0.002,0.001,0.002,0.004
489,-0.001,0.003,0.003,0.001,0.007,0.004,0,0.003,0.003,0.001,0,0.002,0.001,0.001,0.004
490,-0.001,0.003,0.003,0.001,0.007,0.004,0,0.003,0.003,0.001,0,0.002,0.001,0.001,0.004
491,-0.001,0.003,0.003,0.001,0.007,0.004,0.001,0.003,0.003,0.001,0,0.002,0.001,0.001,0.004
492,-0.001,0.003,0.003,0.001,0.007,0.004,0.001,0.003,0.003,0.001,0,0.002,0.001,0.002,0.004
493,0,0.002,0.003,0.001,0.007,0.004,0.001,0.003,0.003,0.001,0,0.002,0.001,0.001,0.004
494,0,0.002,0.003,0.001,0.007,0.004,0,0.003,0.003,0.001,0,0.002,0.001,0.001,0.004
495,0,0.002,0.003,0.001,0.007,0.004,0.001,0.003,0.003,0.001,0,0.002,0.001,0.002,0.004
496,-0.001,0.002,0.003,0.001,0.007,0.004,0.001,0.003,0.003,0.001,0,0.002,0.001,0.002,0.004
497,0,0.002,0.003,0.001,0.007,0.004,0.001,0.003,0.003,0.001,0,0.002,0.001,0.002,0.004
498,0,0.002,0.003,0.001,0.007,0.004,0.001,0.003,0.003,0.001,0,0.002,0.001,0.002,0.004
499,0,0.002,0.003,0.001,0.007,0.004,0,0.003,0.003,0.001,0,0.002,0.001,0.002,0.004
500,0,0.002,0.003,0.001,0.007,0.004,0,0.003,0.003,0.001,0,0.002,0.001,0.001,0.004
501,0,0.002,0.003,0.001,0.007,0.004,0.001,0.003,0.003,0.001,0,0.002,0.001,0.002,0.004
502,0,0.002,0.003,0.001,0.007,0.004,0,0.003,0.003,0.001,0,0.002,0.001,0.001,0.004
503,0,0.002,0.002,0.001,0.007,0.004,0,0.003,0.003,0.001,0,0.002,0.001,0.001,0.004
504,0,0.002,0.003,0.001,0.007,0.004,0,0.003,0.003,0.001,0,0.002,0.001,0.001,0.004
505,0,0.002,0.003,0.001,0.007,0.004,0,0.003,0.003,0.001,0,0.002,0.001,0.002,0.004
506,0,0.002,0.003,0.001,0.007,0.004,0,0.003,0.003,0.001,0,0.002,0.001,0.002,0.004
507,0,0.002,0.003,0.001,0.007,0.004,0,0.003,0.003,0.001,0,0.002,0.001,0.001,0.004
508,0,0.002,0.003,0.001,0.007,0.004,0.001,0.003,0.003,0.001,0,0.002,0.001,0.002,0.004
509,0,0.002,0.003,0.001,0.006,0.004,0,0.003,0.003,0.001,0,0.002,0.001,0.002,0.004
510,0,0.002,0.002,0.001,0.006,0.004,0,0.003,0.003,0.001,0,0.002,0.001,0.001,0.004
511,0,0.002,0.002,0.001,0.006,0.004,0,0.003,0.003,0.001,0,0.002,0.001,0.002,0.004
512,0,0.002,0.003,0.001,0.006,0.004,0,0.003,0.003,0.001,0,0.002,0.001,0.002,0.004
513,0,0.002,0.002,0.001,0.006,0.004,0,0.002,0.003,0.001,0,0.002,0.001,0.001,0.004
514,0,0.002,0.002,0.001,0.006,0.004,0,0.002,0.003,0.001,0,0.002,0.001,0.001,0.004
515,0,0.002,0.002,0.001,0.006,0.004,0,0.002,0.002,0.001,0,0.002,0.001,0.001,0.004
516,0,0.002,0.002,0.001,0.006,0.004,0,0.002,0.002,0.001,0,0.002,0.001,0.001,0.004
517,0,0.002,0.002,0.001,0.006,0.004,0,0.002,0.002,0.001,0,0.002,0.001,0.001,0.004
518,0,0.002,0.002,0.001,0.006,0.004,0,0.002,0.002,0.001,0,0.002,0.001,0.001,0.004
519,0,0.002,0.002,0.001,0.006,0.004,0,0.002,0.002,0.001,0,0.002,0.001,0.001,0.004
520,0,0.002,0.002,0.001,0.006,0.004,0,0.002,0.002,0.001,0,0.002,0.001,0.001,0.004
521,0,0.002,0.002,0.001,0.006,0.003,0,0.002,0.002,0.001,0,0.002,0.001,0.001,0.004
522,0,0.002,0.002,0.001,0.006,0.004,0,0.002,0.002,0.001,0,0.002,0.001,0.001,0.004
523,0,0.002,0.002,0.001,0.006,0.004,0,0.002,0.002,0.001,0,0.002,0.001,0.001,0.004
524,0,0.002,0.002,0.001,0.006,0.003,0,0.002,0.002,0.001,0,0.001,0.001,0.001,0.004
525,0,0.002,0.002,0.001,0.006,0.004,0,0.002,0.002,0.001,0,0.002,0.001,0.001,0.004
526,0,0.002,0.002,0.001,0.006,0.004,0,0.002,0.002,0.001,0,0.002,0.001,0.001,0.004
527,0,0.002,0.002,0.001,0.006,0.003,0,0.002,0.002,0.001,0,0.002,0.001,0.001,0.004
528,0,0.002,0.002,0.001,0.006,0.003,0,0.002,0.002,0.001,0,0.002,0.001,0.001,0.004
529,0,0.002,0.002,0.001,0.006,0.003,0,0.002,0.002,0.001,0,0.001,0.001,0.001,0.004
530,0,0.002,0.002,0.001,0.006,0.003,0,0.002,0.002,0.001,0,0.001,0.001,0.001,0.003
531,0,0.002,0.002,0.001,0.006,0.003,0,0.002,0.002,0.001,0,0.001,0.001,0.001,0.004
532,0,0.002,0.002,0.001,0.006,0.003,0,0.002,0.002,0.001,0,0.001,0.001,0.001,0.003
533,0,0.002,0.002,0.001,0.006,0.003,0,0.002,0.002,0.001,0,0.001,0.001,0.001,0.003
534,0,0.002,0.002,0.001,0.006,0.003,0,0.002,0.002,0.001,0,0.001,0.001,0.001,0.003
535,0,0.002,0.002,0.001,0.006,0.004,0.001,0.002,0.002,0.001,0,0.002,0.001,0.001,0.004
536,0.001,0.003,0.003,0.002,0.007,0.004,0.001,0.003,0.003,0.002,0.001,0.002,0.002,0.002,0.004
537,0,0.002,0.002,0.001,0.006,0.003,0,0.002,0.002,0.001,0,0.001,0.001,0.001,0.003
538,-0.001,0.002,0.002,0.001,0.006,0.003,0,0.002,0.002,0.001,0,0.001,0,0.001,0.003
539,0,0.002,0.002,0.001,0.006,0.003,0,0.002,0.002,0.001,0,0.001,0,0.001,0.003
540,0,0.002,0.002,0.001,0.006,0.003,0,0.002,0.002,0.001,0,0.001,0,0.001,0.003
541,0,0.002,0.002,0.001,0.006,0.003,0,0.002,0.002,0.001,0,0.001,0,0.001,0.003
542,0,0.002,0.002,0.001,0.006,0.003,0,0.002,0.002,0.001,0,0.001,0.001,0.001,0.003
543,0,0.002,0.002,0.001,0.006,0.003,0,0.002,0.002,0.001,0,0.001,0,0.001,0.003
544,-0.001,0.001,0.002,0.001,0.006,0.003,0,0.002,0.002,0.001,0,0.001,0,0.001,0.003
545,0,0.001,0.002,0.001,0.006,0.003,0,0.002,0.002,0.001,0,0.001,0,0.001,0.003
546,-0.001,0.001,0.002,0.001,0.006,0.003,0,0.002,0.002,0,0,0.001,0,0.001,0.003
547,0,0.001,0.002,0.001,0.006,0.003,0,0.002,0.002,0,0,0.001,0,0.001,0.003
548,0,0.001,0.002,0.001,0.006,0.003,0,0.002,0.002,0,0,0.001,0,0.001,0.003
549,0,0.001,0.002,0.001,0.006,0.003,0,0.002,0.002,0.001,0,0.001,0,0.001,0.003
550,0,0.001,0.002,0.001,0.006,0.003,0,0.002,0.002,0,0,0.001,0,0.001,0.003
551,0,0.001,0.002,0.001,0.005,0.003,0,0.002,0.002,0,0,0.001,0,0.001,0.003
552,0,0.001,0.002,0.001,0.006,0.003,0,0.002,0.002,0,0,0.001,0,0.001,0.003
553,0,0.001,0.002,0.001,0.005,0.003,0,0.002,0.002,0,0,0.001,0,0.001,0.003
554,0,0.001,0.002,0.001,0.006,0.003,0,0.002,0.002,0,0,0.001,0,0.001,0.003
555,0,0.001,0.002,0.001,0.006,0.003,0,0.002,0.002,0.001,0,0.001,0,0.001,0.003
556,0,0.001,0.002,0.001,0.006,0.003,0,0.002,0.002,0.001,0,0.001,0,0.001,0.003
557,0,0.001,0.002,0.001,0.005,0.003,0,0.002,0.002,0.001,0,0.001,0,0.001,0.003
558,0,0.001,0.002,0.001,0.006,0.003,0,0.002,0.002,0.001,0,0.001,0,0.001,0.003
559,0,0.001,0.002,0.001,0.005,0.003,0,0.002,0.002,0.001,0,0.001,0,0.001,0.003
560,-0.001,0.001,0.002,0.001,0.005,0.003,0,0.002,0.002,0,0,0.001,0,0.001,0.003
561,-0.001,0.001,0.002,0.001,0.005,0.003,0,0.002,0.002,0,0,0.001,0,0.001,0.003
562,0,0.001,0.002,0.001,0.005,0.003,0,0.002,0.002,0,0,0.001,0,0.001,0.003
563,0,0.001,0.002,0.001,0.005,0.003,0,0.002,0.002,0,0,0.001,0,0.001,0.003
564,0,0.001,0.002,0.001,0.005,0.003,0,0.002,0.002,0.001,0,0.001,0,0.001,0.003
565,0,0.001,0.002,0.001,0.006,0.003,0,0.002,0.002,0.001,0,0.001,0.001,0.001,0.003
566,0,0.001,0.002,0.001,0.006,0.003,0,0.002,0.002,0.001,0,0.001,0.001,0.001,0.003
567,0,0.001,0.002,0.001,0.005,0.003,0,0.002,0.002,0.001,0,0.001,0,0.001,0.003
568,0,0.001,0.002,0.001,0.005,0.003,0,0.002,0.002,0.001,0,0.001,0,0.001,0.003
569,0,0.001,0.002,0.001,0.005,0.003,0,0.002,0.002,0,0,0.001,0,0.001,0.003
570,0,0.001,0.002,0.001,0.005,0.003,0,0.002,0.002,0,0,0.001,0,0.001,0.003
571,0,0.001,0.002,0.001,0.005,0.003,0,0.002,0.002,0,0,0.001,0,0.001,0.003
572,0,0.001,0.002,0.001,0.005,0.003,0,0.002,0.002,0,0,0.001,0,0.001,0.003
573,0,0.001,0.002,0.001,0.005,0.003,0,0.002,0.002,0,0,0.001,0.001,0.001,0.003
574,0,0.001,0.002,0.001,0.005,0.003,0,0.002,0.002,0,0,0.001,0,0.001,0.003
575,0,0.001,0.002,0.001,0.005,0.003,0,0.002,0.002,0,0,0.001,0,0.001,0.003
576,0,0.001,0.002,0.001,0.005,0.003,0,0.002,0.002,0,0,0.001,0,0.001,0.003
577,0,0.001,0.002,0.001,0.005,0.003,0,0.002,0.002,0,0,0.001,0,0.001,0.003
578,0,0.001,0.002,0.001,0.005,0.003,0,0.002,0.002,0,0,0.001,0,0.001,0.003
579,0,0.001,0.002,0.001,0.005,0.003,0,0.002,0.002,0,0,0.001,0.001,0.001,0.003
580,0,0.001,0.002,0.001,0.005,0.003,0,0.002,0.002,0,0,0.001,0,0.001,0.003
581,0,0.001,0.002,0.001,0.005,0.003,0,0.002,0.002,0,0,0.001,0,0.001,0.003
582,0,0.001,0.002,0.001,0.005,0.003,0,0.002,0.002,0,0,0.001,0.001,0.001,0.003
583,0,0.001,0.002,0.001,0.005,0.003,0,0.002,0.002,0,0,0.001,0,0.001,0.003
584,0,0.001,0.002,0.001,0.005,0.003,0,0.002,0.002,0,0,0.001,0,0.001,0.003
585,0,0.001,0.002,0.001,0.005,0.003,0,0.002,0.002,0,0,0.001,0,0.001,0.003
586,0,0.001,0.002,0.001,0.005,0.003,0,0.002,0.002,0,0,0.001,0,0.001,0.003
587,0,0.001,0.002,0.001,0.005,0.003,0,0.002,0.002,0.001,0,0.001,0,0.001,0.003
588,0,0.001,0.002,0.001,0.005,0.003,0,0.002,0.002,0.001,0,0.001,0.001,0.001,0.003
589,0,0.001,0.002,0.001,0.005,0.003,0,0.002,0.002,0.001,0,0.001,0.001,0.001,0.003
590,0,0.001,0.002,0.001,0.005,0.003,0,0.002,0.002,0,0,0.001,0,0.001,0.003
591,0,0.001,0.002,0.001,0.005,0.003,0,0.002,0.002,0,0,0.001,0,0.001,0.003
592,0,0.001,0.002,0.001,0.005,0.003,0,0.002,0.002,0,0,0.001,0,0.001,0.003
593,0,0.001,0.002,0.001,0.005,0.003,0,0.002,0.002,0.001,0,0.001,0.001,0.001,0.003
594,0,0.001,0.002,0.001,0.005,0.003,0,0.002,0.002,0,0,0.001,0,0.001,0.003
595,0,0.001,0.002,0.001,0.005,0.003,0,0.002,0.002,0,0,0.001,0,0.001,0.003
596,0,0.001,0.002,0.001,0.005,0.002,0,0.002,0.002,0,0,0.001,0.001,0.001,0.003
597,0,0.001,0.002,0.001,0.005,0.002,0,0.001,0.002,0,0,0.001,0,0.001,0.003
598,0,0.001,0.002,0.001,0.005,0.002,0,0.001,0.002,0,0,0.001,0,0.001,0.003
599,0,0.001,0.002,0.001,0.005,0.002,0,0.001,0.002,0,0,0.001,0,0.001,0.002
600,0,0.001,0.002,0.001,0.005,0.002,0,0.001,0.002,0,0,0.001,0,0.001,0.003
601,0,0.001,0.002,0.001,0.005,0.002,0,0.001,0.002,0,0,0.001,0,0.001,0.003
602,0,0.001,0.002,0.001,0.005,0.003,0,0.002,0.002,0,0,0.001,0,0.001,0.003
603,0,0.001,0.002,0.001,0.005,0.002,0,0.002,0.002,0,0,0.001,0,0.001,0.003
604,0,0.001,0.002,0.001,0.005,0.002,0,0.001,0.002,0,0,0.001,0,0.001,0.002
605,0,0.001,0.002,0.001,0.005,0.002,0,0.001,0.001,0,0,0.001,0,0.001,0.002
606,0,0.001,0.002,0.001,0.005,0.002,0,0.001,0.001,0,0,0.001,0,0.001,0.002
607,0,0.001,0.002,0.001,0.005,0.002,0,0.001,0.001,0,0,0.001,0,0.001,0.002
608,0,0.001,0.002,0.001,0.005,0.002,0,0.001,0.001,0,0,0.001,0,0.001,0.002
609,0,0.001,0.002,0.001,0.005,0.002,0,0.001,0.002,0,0,0.001,0,0.001,0.002
610,0,0.001,0.002,0.001,0.005,0.002,0,0.001,0.001,0,0,0.001,0,0.001,0.002
611,0,0.001,0.002,0.001,0.005,0.002,0,0.001,0.002,0,0,0.001,0,0.001,0.002
612,0,0.001,0.002,0.001,0.005,0.002,0,0.002,0.002,0,0,0.001,0,0.001,0.002
613,0,0.001,0.002,0.001,0.005,0.002,0,0.001,0.001,0,0,0.001,0,0.001,0.002
614,0,0.001,0.002,0.001,0.005,0.002,0,0.001,0.001,0,0,0.001,0,0.001,0.002
615,0,0.001,0.002,0.001,0.005,0.002,0,0.001,0.001,0,0,0.001,0,0.001,0.002
616,0,0.001,0.002,0.001,0.005,0.002,0,0.001,0.001,0,0,0.001,0,0.001,0.002
617,0,0.001,0.002,0.001,0.005,0.002,0,0.001,0.001,0,0,0.001,0,0.001,0.002
618,0,0.001,0.002,0.001,0.005,0.002,0,0.001,0.001,0,0,0.001,0,0.001,0.002
619,0,0.001,0.002,0.001,0.005,0.002,0,0.001,0.001,0,0,0.001,0,0.001,0.002
620,0,0.001,0.002,0.001,0.005,0.002,0,0.001,0.001,0,0,0.001,0,0.001,0.002
621,0,0.001,0.002,0.001,0.005,0.002,0,0.001,0.001,0,0,0.001,0,0.001,0.002
622,0,0.001,0.002,0.001,0.005,0.002,0,0.001,0.001,0,0,0.001,0,0.001,0.002
623,0,0.001,0.002,0.001,0.005,0.002,0,0.001,0.001,0,0,0.001,0,0.001,0.002
624,0,0.001,0.002,0.001,0.005,0.002,0,0.001,0.001,0,0,0.001,0,0.001,0.002
625,0,0.001,0.001,0.001,0.005,0.002,0,0.001,0.001,0,0,0.001,0,0.001,0.002
626,0,0.001,0.001,0.001,0.005,0.002,0,0.001,0.001,0,0,0.001,0,0.001,0.002
627,0,0.001,0.001,0.001,0.005,0.002,0,0.001,0.001,0,0,0.001,0,0.001,0.002
628,0,0.001,0.002,0.001,0.005,0.002,0,0.001,0.001,0,0,0.001,0,0.001,0.002
629,0,0.001,0.001,0,0.005,0.002,0,0.001,0.001,0,0,0.001,0,0.001,0.002
630,0,0.001,0.001,0,0.005,0.002,0,0.001,0.001,0,0,0.001,0,0.001,0.002
631,0,0.001,0.001,0,0.005,0.002,0,0.001,0.001,0,0,0.001,0,0.001,0.002
632,0,0.001,0.001,0.001,0.005,0.002,0,0.001,0.001,0,0,0.001,0,0.001,0.002
633,0,0.001,0.002,0.001,0.005,0.002,0,0.001,0.001,0,0,0.001,0,0.001,0.002
634,0,0.001,0.002,0.001,0.005,0.002,0,0.001,0.001,0,0,0.001,0,0.001,0.002
635,0,0.001,0.001,0.001,0.005,0.002,0,0.001,0.001,0,0,0.001,0,0.001,0.002
636,0,0.001,0.001,0,0.005,0.002,0,0.001,0.001,0,0,0.001,0,0.001,0.002
637,0,0.001,0.001,0,0.004,0.002,0,0.001,0.001,0,0,0.001,0,0.001,0.002
638,0,0.001,0.001,0.001,0.005,0.002,0,0.001,0.001,0,0,0.001,0,0.001,0.002
639,0,0.001,0.001,0.001,0.005,0.002,0,0.001,0.001,0,0,0.001,0,0.001,0.002
640,0,0.001,0.001,0.001,0.004,0.002,0,0.001,0.001,0,0,0.001,0,0.001,0.002
641,0,0.001,0.001,0.001,0.004,0.002,0,0.001,0.001,0,0,0.001,0,0.001,0.002
642,0,0.001,0.001,0.001,0.004,0.002,0,0.001,0.001,0,0,0.001,0,0.001,0.002
643,0,0.001,0.001,0.001,0.004,0.002,0,0.001,0.001,0,0,0.001,0,0.001,0.002
644,0,0,0.001,0,0.004,0.002,0,0.001,0.001,0,0,0.001,0,0.001,0.002
645,0,0.001,0.001,0.001,0.004,0.002,0,0.001,0.001,0,0,0.001,0,0.001,0.002
646,0,0.001,0.001,0.001,0.004,0.002,0,0.001,0.001,0,0,0.001,0,0.001,0.002
647,0,0.001,0.001,0.001,0.004,0.002,0,0.001,0.001,0,0,0.001,0,0.001,0.002
648,0,0.001,0.002,0.001,0.004,0.002,0,0.001,0.001,0,0,0.001,0,0.001,0.002
649,0,0.001,0.002,0.001,0.005,0.002,0,0.001,0.001,0,0,0.001,0,0.001,0.002
650,0,0.001,0.002,0.001,0.005,0.002,0,0.001,0.001,0,0,0.001,0,0.001,0.002
651,0,0.001,0.002,0.001,0.005,0.002,0,0.001,0.001,0,0,0.001,0,0.001,0.002
652,0,0.001,0.002,0.001,0.005,0.002,0,0.001,0.002,0,0,0.001,0,0.001,0.002
653,0,0.001,0.002,0.001,0.005,0.002,0,0.001,0.001,0,0,0.001,0,0.001,0.002
654,0,0.001,0.002,0.001,0.005,0.002,0,0.001,0.001,0,0,0.001,0,0.001,0.002
655,0,0.001,0.002,0.001,0.005,0.002,0,0.001,0.001,0,0,0.001,0,0.001,0.002
656,0,0.001,0.002,0.001,0.005,0.002,0,0.001,0.001,0,0,0.001,0,0.001,0.002
657,0,0.001,0.002,0.001,0.005,0.002,0,0.001,0.001,0,0,0.001,0,0.001,0.002
658,0,0.001,0.002,0.001,0.005,0.002,0,0.001,0.001,0,0,0.001,0,0.001,0.002
659,0,0.001,0.002,0.001,0.005,0.002,0,0.001,0.001,0,0,0.001,0,0.001,0.002
660,0,0.001,0.002,0.001,0.005,0.002,0,0.001,0.001,0,0,0.001,0,0.001,0.002
661,0,0.001,0.002,0.001,0.005,0.002,0,0.001,0.001,0,0,0.001,0,0.001,0.002
662,0,0.001,0.002,0.001,0.005,0.002,0,0.001,0.001,0,0,0.001,0,0.001,0.002
663,0,0.001,0.002,0.001,0.005,0.002,0,0.001,0.001,0,0,0.001,0,0.001,0.002
664,0,0.001,0.002,0.001,0.004,0.002,0,0.001,0.001,0,0,0.001,0,0.001,0.002
665,0,0.001,0.002,0.001,0.004,0.002,0,0.001,0.001,0,0,0.001,0,0.001,0.002
666,0,0.001,0.002,0.001,0.004,0.002,0,0.001,0.001,0,0,0.001,0,0.001,0.002
667,0,0.001,0.002,0.001,0.004,0.002,0,0.001,0.001,0,0,0.001,0,0.001,0.002
668,0,0.001,0.002,0.001,0.004,0.002,0,0.001,0.001,0,0,0.001,0,0.001,0.002
669,0,0.001,0.002,0.001,0.005,0.002,0,0.001,0.001,0,0,0.001,0.001,0.001,0.002
670,0,0.001,0.002,0.001,0.004,0.002,0,0.001,0.001,0,0,0.001,0.001,0.001,0.002
671,0,0.001,0.002,0.001,0.004,0.002,0,0.001,0.001,0,0,0.001,0,0.001,0.002
672,0,0.001,0.002,0.001,0.004,0.002,0,0.001,0.001,0,0,0.001,0,0.001,0.002
673,0,0,0.002,0.001,0.004,0.002,0,0.001,0.001,0,0,0.001,0,0.001,0.002
674,0,0.001,0.002,0.001,0.005,0.002,0,0.001,0.002,0,0,0.001,0,0.001,0.002
675,0,0.001,0.002,0.001,0.005,0.002,0,0.001,0.002,0,0,0.001,0.001,0.001,0.002
676,0,0.001,0.002,0.001,0.005,0.002,0,0.001,0.001,0,0,0.001,0.001,0.001,0.002
677,0,0,0.002,0.001,0.004,0.002,0,0.001,0.001,0,0,0.001,0,0.001,0.002
678,0,0.001,0.002,0.001,0.004,0.002,0,0.001,0.001,0,0,0.001,0,0.001,0.002
679,0,0.001,0.002,0.001,0.004,0.002,0,0.001,0.001,0,0,0.001,0.001,0.001,0.002
680,0,0.001,0.002,0.001,0.004,0.002,0,0.001,0.002,0,0,0.001,0.001,0.001,0.002
681,0,0.001,0.002,0.001,0.004,0.002,0,0.001,0.001,0,0,0.001,0,0.001,0.002
682,0,0.001,0.002,0.001,0.004,0.002,0,0.001,0.001,0,0,0.001,0,0.001,0.002
683,0,0.001,0.002,0.001,0.004,0.002,0,0.001,0.001,0,0,0.001,0,0.001,0.002
684,0,0.001,0.002,0.001,0.004,0.002,0,0.001,0.001,0,0,0.001,0,0.001,0.002
685,0,0.001,0.002,0.001,0.004,0.002,0,0.001,0.001,0,0,0.001,0,0.001,0.002
686,0,0.001,0.002,0.001,0.004,0.002,0,0.001,0.001,0,0,0.001,0,0.001,0.002
687,0,0,0.002,0.001,0.004,0.002,0,0.001,0.001,0,0,0.001,0,0.001,0.002
688,0,0,0.001,0.001,0.004,0.002,0,0.001,0.001,0,0,0.001,0,0.001,0.002
689,0,0,0.001,0.001,0.004,0.002,0,0.001,0.001,0,0,0.001,0,0.001,0.002
690,0,0,0.001,0.001,0.004,0.002,0,0.001,0.001,0,0,0.001,0,0.001,0.002
691,0,0,0.002,0.001,0.004,0.002,0,0.001,0.001,0,0,0.001,0,0.001,0.002
692,0,0,0.002,0.001,0.004,0.002,0,0.001,0.001,0,0,0.001,0,0.001,0.002
693,0,0,0.001,0.001,0.004,0.002,0,0.001,0.001,0,0,0.001,0,0.001,0.002
694,0,0,0.001,0.001,0.004,0.002,0,0.001,0.001,0,0,0.001,0,0.001,0.002
695,0,0,0.001,0.001,0.004,0.002,0,0.001,0.001,0,0,0.001,0,0.001,0.002
696,0,0,0.001,0.001,0.004,0.002,0,0.001,0.001,0,0,0.001,0,0.001,0.002
697,0,0.001,0.002,0.001,0.004,0.002,0,0.001,0.001,0,0,0.001,0,0.001,0.002
698,0,0.001,0.002,0.001,0.004,0.002,0,0.001,0.001,0,0,0.001,0,0.001,0.002
699,0,0,0.001,0.001,0.004,0.002,0,0.001,0.001,0,0,0.001,0,0.001,0.002
700,0,0,0.001,0.001,0.004,0.002,0,0.001,0.001,0,0,0.001,0,0.001,0.002
701,0,0,0.001,0.001,0.004,0.002,0,0.001,0.001,0,0,0.001,0,0.001,0.002
702,0,0,0.001,0.001,0.004,0.002,0,0.001,0.001,0,0,0.001,0,0.001,0.002
703,0,0,0.001,0.001,0.004,0.002,0,0.001,0.001,0,0,0.001,0,0.001,0.002
704,0,0,0.001,0.001,0.004,0.002,0,0.001,0.001,0,0,0.001,0,0.001,0.002
705,0,0,0.001,0.001,0.004,0.002,0,0.001,0.001,0,0,0.001,0,0.001,0.002
706,0,0,0.001,0.001,0.004,0.002,0,0.001,0.001,0,0,0.001,0,0.001,0.002
707,0,0,0.001,0.001,0.004,0.002,0,0.001,0.001,0,0,0.001,0,0.001,0.002
708,0,0,0.001,0.001,0.004,0.002,0,0.001,0.001,0,0,0.001,0,0.001,0.002
709,0,0,0.001,0.001,0.004,0.002,0,0.001,0.001,0,0,0.001,0,0.001,0.002
710,0,0,0.001,0.001,0.004,0.002,0,0.001,0.001,0,0,0.001,0,0.001,0.002
711,0,0,0.001,0.001,0.004,0.002,0,0.001,0.001,0,0,0.001,0,0.001,0.002
712,0,0,0.001,0.001,0.004,0.002,0,0.001,0.001,0,0,0.001,0,0.001,0.002
713,0,0,0.001,0.001,0.004,0.002,0,0.001,0.001,0,0,0.001,0,0.001,0.002
714,0,0,0.001,0.001,0.004,0.002,0,0.001,0.001,0,0,0.001,0,0.001,0.002
715,0,0,0.001,0.001,0.004,0.002,0,0.001,0.001,0,0,0.001,0,0.001,0.002
716,0,0,0.001,0.001,0.004,0.002,0,0.001,0.001,0,0,0.001,0,0.001,0.002
717,0,0,0.001,0.001,0.004,0.002,0,0.001,0.001,0,0,0.001,0,0.001,0.002
718,0,0,0.001,0.001,0.004,0.002,0,0.001,0.001,0,0,0.001,0,0.001,0.002
719,0,0,0.001,0.001,0.004,0.002,0,0.001,0.001,0,0,0.001,0,0.001,0.002
720,0,0,0.001,0.001,0.004,0.002,0,0.001,0.001,0,0,0.001,0,0.001,0.002
721,0,0,0.001,0.001,0.004,0.002,0,0.001,0.001,0,0,0.001,0,0.001,0.002
722,0,0,0.001,0.001,0.004,0.002,0,0.001,0.001,0,0,0.001,0,0.001,0.002
723,0,0,0.001,0.001,0.004,0.002,0,0.001,0.001,0,0,0,0,0.001,0.002
724,0,0,0.001,0.001,0.004,0.002,0,0.001,0.001,0,0,0.001,0,0.001,0.002
725,0,0,0.001,0.001,0.004,0.002,0,0.001,0.001,0,0,0.001,0,0.001,0.002
726,0,0,0.001,0.001,0.004,0.002,0,0.001,0.001,0,0,0.001,0,0.001,0.002
727,0,0,0.001,0.001,0.004,0.002,0,0.001,0.001,0,0,0.001,0,0.001,0.002
728,0,0,0.001,0.001,0.004,0.002,0,0.001,0.001,0,0,0.001,0,0.001,0.002
729,0,0,0.001,0.001,0.004,0.002,0,0.001,0.001,0,0,0.001,0,0.001,0.002
730,0,0,0.001,0.001,0.004,0.002,0,0.001,0.001,0,0,0.001,0,0.001,0.002
731,0,0,0.001,0.001,0.004,0.002,0,0.001,0.001,0,0,0.001,0,0.001,0.002
732,0,0,0.001,0.001,0.004,0.002,0,0.001,0.001,0,0,0.001,0,0.001,0.002
733,0,0,0.001,0,0.004,0.002,0,0.001,0.001,0,0,0.001,0,0.001,0.002
734,0,0,0.001,0.001,0.004,0.002,0,0.001,0.001,0,0,0.001,0,0.001,0.002
735,0,0,0.001,0.001,0.004,0.002,0,0.001,0.001,0,0,0.001,0,0.001,0.002
736,0,0,0.001,0.001,0.004,0.002,0,0.001,0.001,0,0,0.001,0,0.001,0.002
737,0,0,0.001,0,0.004,0.002,0,0.001,0.001,0,0,0,0,0.001,0.002
738,0,0,0.001,0.001,0.004,0.002,0,0.001,0.001,0,0,0,0,0.001,0.002
739,0,0,0.001,0.001,0.004,0.002,0,0.001,0.001,0,0,0.001,0,0.001,0.002
740,0,0,0.001,0.001,0.004,0.002,0,0.001,0.001,0,0,0.001,0,0.001,0.002
741,0,0,0.001,0.001,0.004,0.002,0,0.001,0.001,0,0,0.001,0,0.001,0.002
742,0,0,0.001,0.001,0.004,0.002,0,0.001,0.001,0,0,0.001,0,0.001,0.002
743,0,0,0.001,0.001,0.004,0.002,0,0.001,0.001,0,0,0.001,0,0.001,0.002
744,0,0,0.001,0.001,0.004,0.002,0,0.001,0.001,0,0,0.001,0,0.001,0.002
745,0,0,0.001,0.001,0.004,0.002,0,0.001,0.001,0,0,0.001,0,0.001,0.002
746,0,0,0.001,0.001,0.004,0.002,0,0.001,0.001,0,0,0.001,0,0.001,0.002
747,0,0,0.001,0.001,0.004,0.002,0,0.001,0.001,0,0,0.001,0,0.001,0.002
748,0,0,0.001,0.001,0.004,0.002,0,0.001,0.001,0,0,0.001,0,0.001,0.002
749,0,0,0.001,0.001,0.004,0.002,0,0.001,0.001,0,0,0.001,0,0.001,0.002
750,0,0,0.001,0.001,0.004,0.002,0,0.001,0.001,0,0,0.001,0,0.001,0.002
751,0,0,0.001,0.001,0.004,0.002,0,0.001,0.001,0,0,0.001,0,0.001,0.002
752,0,0,0.001,0.001,0.004,0.002,0,0.001,0.001,0,0,0.001,0,0.001,0.002
753,0,0,0.001,0.001,0.004,0.001,0,0.001,0.001,0,0,0.001,0,0.001,0.002
754,0,0,0.001,0.001,0.004,0.002,0,0.001,0.001,0,0,0.001,0,0.001,0.002
755,0,0,0.001,0.001,0.004,0.002,0,0.001,0.001,0,0,0.001,0,0.001,0.002
756,0,0,0.001,0.001,0.004,0.002,0,0.001,0.001,0,0,0.001,0,0.001,0.002
757,0,0,0.001,0.001,0.004,0.002,0,0.001,0.001,0,0,0.001,0,0.001,0.002
758,0,0,0.001,0.001,0.004,0.001,0,0.001,0.001,0,0,0.001,0,0.001,0.002
759,0,0.001,0.001,0.001,0.004,0.002,0,0.001,0.001,0,0,0.001,0.001,0.001,0.002
760,0.001,0.001,0.002,0.002,0.005,0.003,0.001,0.002,0.002,0.001,0.001,0.002,0.001,0.002,0.003
761,0,0,0.002,0.001,0.004,0.002,0,0.001,0.001,0,0,0.001,0.001,0.001,0.002
762,0,0,0.001,0.001,0.004,0.002,0,0.001,0.001,0,0,0.001,0,0.001,0.002
763,0,0,0.001,0.001,0.004,0.002,0,0.001,0.001,0,0,0.001,0,0.001,0.002
764,0,0,0.001,0.001,0.004,0.002,0,0.001,0.001,0,0,0.001,0,0.001,0.002
765,0,0,0.001,0.001,0.004,0.002,0,0.001,0.001,0,0,0.001,0,0.001,0.002
766,0,0,0.001,0.001,0.004,0.002,0,0.001,0.001,0,0,0.001,0,0.001,0.002
767,0,0,0.001,0.001,0.004,0.002,0,0.001,0.001,0,0,0.001,0,0.001,0.002
768,0,0,0.001,0.001,0.004,0.002,0,0.001,0.001,0,0,0.001,0,0.001,0.002
769,0,0,0.001,0.001,0.004,0.002,0,0.001,0.001,0,0,0.001,0,0.001,0.002
770,0,0,0.001,0.001,0.004,0.002,0,0.001,0.001,0,0,0.001,0,0.001,0.002
771,0,0,0.001,0.001,0.004,0.002,0,0.001,0.001,0,0,0.001,0,0.001,0.002
772,0,0,0.001,0.001,0.004,0.002,0,0.001,0.001,0,0,0.001,0,0.001,0.002
773,0,0,0.002,0.001,0.004,0.002,0,0.001,0.001,0,0,0.001,0,0.001,0.002
774,0,0,0.002,0.001,0.004,0.002,0,0.001,0.001,0,0,0.001,0,0.001,0.002
775,0,0,0.001,0.001,0.004,0.002,0,0.001,0.001,0,0,0.001,0,0.001,0.002
776,0,0,0.001,0.001,0.004,0.002,0,0.001,0.001,0,0,0.001,0,0.001,0.002
777,0,0,0.002,0.001,0.004,0.002,0,0.001,0.001,0,0,0.001,0.001,0.001,0.002
778,0,0,0.002,0.001,0.004,0.002,0,0.001,0.001,0,0,0.001,0.001,0.001,0.002
779,0,0,0.001,0.001,0.004,0.002,0,0.001,0.001,0,0,0.001,0.001,0.001,0.002
780,0,0,0.001,0.001,0.004,0.002,0,0.001,0.001,0,0,0.001,0.001,0.001,0.002
781,0,0,0.001,0.001,0.004,0.002,0,0.001,0.001,0,0,0.001,0.001,0.001,0.002
782,0,0,0.002,0.001,0.004,0.002,0,0.001,0.001,0,0,0.001,0.001,0.001,0.002
783,0,0,0.001,0.001,0.004,0.002,0,0.001,0.001,0,0,0.001,0.001,0.001,0.002
784,0,0,0.001,0.001,0.004,0.002,0,0.001,0.001,0,0,0.001,0.001,0.001,0.002
785,0,0,0.001,0.001,0.004,0.001,0,0.001,0.001,0,0,0.001,0,0.001,0.002
786,0,0,0.001,0.001,0.004,0.001,0,0.001,0.001,0,0,0.001,0,0.001,0.002
787,0,0,0.001,0.001,0.004,0.001,0,0.001,0.001,0,0,0.001,0,0.001,0.002
788,0,0,0.001,0.001,0.004,0.001,0,0.001,0.001,0,0,0.001,0,0.001,0.002
789,0,0,0.002,0.001,0.004,0.002,0,0.001,0.001,0,0,0.001,0.001,0.001,0.002
790,0,0,0.002,0.001,0.004,0.002,0,0.001,0.001,0,0,0.001,0.001,0.001,0.002
791,0,0,0.001,0.001,0.004,0.001,0,0.001,0.001,0,0,0.001,0.001,0.001,0.002
792,0,0,0.001,0.001,0.004,0.002,0,0.001,0.001,0,0,0.001,0.001,0.001,0.002
793,0,0,0.001,0.001,0.004,0.002,0,0.001,0.001,0,0,0.001,0.001,0.001,0.002
794,0,0,0.001,0.001,0.004,0.002,0,0.001,0.001,0,0,0.001,0.001,0.001,0.002
795,0,0,0.001,0.001,0.004,0.002,0,0.001,0.001,0,0,0.001,0.001,0.001,0.002
796,0,0,0.001,0.001,0.004,0.002,0,0.001,0.001,0,0,0.001,0.001,0.001,0.002
797,0,0,0.001,0.001,0.004,0.002,0,0.001,0.001,0,0,0.001,0.001,0.001,0.002
798,0,0,0.001,0.001,0.004,0.002,0,0.001,0.001,0,0,0.001,0.001,0.001,0.002
799,0,0,0.001,0.001,0.004,0.002,0,0.001,0.001,0,0,0.001,0.001,0.001,0.002
800,0,0,0.001,0.001,0.004,0.001,0,0.001,0.001,0,0,0.001,0,0.001,0.002
801,0,0,0.001,0.001,0.004,0.001,0,0.001,0.001,0,0,0.001,0.001,0.001,0.002
802,0,0,0.001,0.001,0.004,0.002,0,0.001,0.001,0,0,0.001,0.001,0.001,0.002
803,0,0,0.001,0.001,0.004,0.002,0,0.001,0.001,0,0,0.001,0.001,0.001,0.002
804,0,0,0.001,0.001,0.004,0.001,0,0.001,0.001,0,0,0.001,0.001,0.001,0.002
805,0,0,0.001,0.001,0.004,0.001,0,0.001,0.001,0,0,0.001,0.001,0.001,0.002
806,0,0,0.001,0.001,0.004,0.002,0,0.001,0.001,0,0,0.001,0.001,0.001,0.002
807,0,0,0.002,0.001,0.004,0.002,0,0.001,0.001,0,0,0.001,0.001,0.001,0.002
808,0,0,0.002,0.001,0.004,0.002,0,0.001,0.001,0,0,0.001,0.001,0.001,0.002
809,0,0,0.001,0.001,0.004,0.001,0,0.001,0.001,0,0,0.001,0.001,0.001,0.002
810,0,0,0.001,0.001,0.004,0.002,0,0.001,0.001,0,0,0.001,0.001,0.001,0.002
811,0,0,0.001,0.001,0.004,0.001,0,0.001,0.001,0,0,0.001,0.001,0.001,0.002
812,0,0,0.001,0.001,0.004,0.001,0,0.001,0.001,0,0,0.001,0.001,0.001,0.002
813,0,0,0.001,0.001,0.004,0.002,0,0.001,0.001,0,0,0.001,0.001,0.001,0.002
814,0,0,0.001,0.001,0.004,0.001,0,0.001,0.001,0,0,0.001,0.001,0.001,0.002
815,0,0,0.001,0.001,0.004,0.002,0,0.001,0.001,0,0,0.001,0.001,0.001,0.002
816,0,0,0.002,0.001,0.004,0.002,0,0.001,0.001,0.001,0,0.001,0.001,0.001,0.002
817,0,0,0.002,0.001,0.004,0.002,0,0.001,0.001,0,0,0.001,0.001,0.001,0.002
818,0,0,0.001,0.001,0.004,0.002,0,0.001,0.001,0,0,0.001,0.001,0.001,0.002
819,0,0,0.002,0.001,0.004,0.002,0,0.001,0.001,0,0,0.001,0.001,0.001,0.002
820,0,0,0.001,0.001,0.004,0.002,0,0.001,0.001,0.001,0,0.001,0.001,0.001,0.002
821,0,0,0.001,0.001,0.004,0.002,0,0.001,0.001,0,0,0.001,0.001,0.001,0.002
822,0,0,0.001,0.001,0.004,0.002,0,0.001,0.001,0,0,0.001,0.001,0.001,0.002
823,0,0,0.001,0.001,0.004,0.002,0,0.001,0.001,0,0,0.001,0.001,0.001,0.002
824,0,0,0.001,0.001,0.004,0.002,0,0.001,0.001,0,0,0.001,0.001,0.001,0.002
825,0,0,0.001,0.001,0.004,0.002,0,0.001,0.001,0,0,0.001,0.001,0.001,0.002
826,0,0,0.001,0.001,0.004,0.002,0,0.001,0.001,0,0,0.001,0.001,0.001,0.002
827,0,0,0.002,0.001,0.004,0.002,0,0.001,0.001,0.001,0,0.001,0.001,0.001,0.002
828,0,0,0.002,0.001,0.004,0.002,0,0.001,0.001,0.001,0,0.001,0.001,0.001,0.002
829,0,0,0.001,0.001,0.004,0.002,0,0.001,0.001,0,0,0.001,0.001,0.001,0.002
830,0,0,0.001,0.001,0.004,0.002,0,0.001,0.001,0,0,0.001,0.001,0.001,0.002
831,0,0,0.001,0.001,0.003,0.002,0,0.001,0.001,0,0,0.001,0.001,0.001,0.002
832,0,0,0.001,0.001,0.003,0.001,0,0.001,0.001,0,0,0.001,0.001,0.001,0.002
833,0,0,0.001,0.001,0.003,0.001,0,0.001,0.001,0,0,0.001,0,0.001,0.002
834,0,0,0.001,0.001,0.003,0.002,0,0.001,0.001,0,0,0.001,0.001,0.001,0.002
835,0,0,0.001,0.001,0.004,0.002,0,0.001,0.001,0,0,0.001,0.001,0.001,0.002
836,0,0,0.001,0.001,0.004,0.002,0,0.001,0.001,0,0,0.001,0.001,0.001,0.002
837,0,0,0.001,0.001,0.003,0.002,0,0.001,0.001,0,0,0.001,0.001,0.001,0.002
838,0,0,0.001,0.001,0.003,0.002,0,0.001,0.001,0,0,0.001,0.001,0.001,0.002
839,0,0,0.001,0.001,0.003,0.002,0,0.001,0.001,0,0,0.001,0.001,0.001,0.002
840,0,0,0.001,0.001,0.003,0.001,0,0.001,0.001,0,0,0.001,0.001,0.001,0.002
841,0,0,0.001,0.001,0.003,0.001,0,0.001,0.001,0,0,0.001,0,0.001,0.002
842,0,0,0.001,0.001,0.003,0.002,0,0.001,0.001,0,0,0.001,0.001,0.001,0.002
843,0,0,0.001,0.001,0.003,0.001,0,0.001,0.001,0,0,0.001,0.001,0.001,0.002
844,0,0,0.001,0.001,0.003,0.001,0,0.001,0.001,0,0,0.001,0.001,0.001,0.002
845,0,0,0.001,0.001,0.003,0.002,0,0.001,0.001,0,0,0.001,0.001,0.001,0.002
846,0,0,0.001,0.001,0.003,0.002,0,0.001,0.001,0,0,0.001,0.001,0.001,0.002
847,0,0,0.001,0.001,0.003,0.001,0,0.001,0.001,0,0,0.001,0.001,0.001,0.002
848,0,0,0.001,0.001,0.003,0.002,0,0.001,0.001,0,0,0.001,0.001,0.001,0.002
849,0,0,0.001,0.001,0.003,0.002,0,0.001,0.001,0,0,0.001,0.001,0.001,0.002
850,0,0,0.001,0.001,0.003,0.002,0,0.001,0.001,0,0,0.001,0.001,0.001,0.002
