Wavelength nm.,MilliQ,CS1_19JUN24_01R1,CC4_19JUN24_6R2,C50_19JUN24_20R2,C50_19JUN24_15R2,CS2_22MAY24_01R1,C50_19JUN24_01R2,C50_22MAY24_20R1,C50_19JUN24_9R2,C50_22MAY24_15R2,C50_22MAY24_6R1,C50_22MAY24_9R2,C50_22MAY24_01R2,C50_19JUN24_6R1
190,0.002,0.358,0.384,0.5,0.41,0.203,0.509,0.472,0.438,0.39,0.419,0.426,0.449,0.387
191,0.002,0.348,0.35,0.467,0.375,0.194,0.463,0.439,0.407,0.36,0.382,0.396,0.413,0.354
192,0.003,0.34,0.321,0.437,0.344,0.188,0.423,0.411,0.374,0.334,0.348,0.366,0.376,0.323
193,0.002,0.33,0.289,0.403,0.311,0.181,0.379,0.382,0.339,0.304,0.313,0.334,0.339,0.29
194,0.001,0.32,0.265,0.375,0.284,0.174,0.344,0.358,0.312,0.279,0.286,0.31,0.311,0.264
195,0.002,0.313,0.244,0.351,0.26,0.169,0.315,0.336,0.287,0.258,0.261,0.287,0.287,0.241
196,0.003,0.308,0.225,0.33,0.24,0.165,0.289,0.318,0.267,0.238,0.241,0.267,0.267,0.222
197,0.003,0.301,0.208,0.312,0.222,0.161,0.267,0.302,0.248,0.221,0.222,0.249,0.249,0.204
198,0.003,0.295,0.193,0.295,0.205,0.157,0.248,0.287,0.232,0.206,0.206,0.234,0.232,0.189
199,0.004,0.29,0.18,0.281,0.192,0.154,0.231,0.277,0.218,0.193,0.192,0.223,0.219,0.178
200,0.004,0.285,0.17,0.27,0.179,0.151,0.217,0.267,0.207,0.183,0.18,0.212,0.207,0.167
201,0.003,0.28,0.16,0.259,0.168,0.148,0.204,0.258,0.196,0.173,0.17,0.203,0.196,0.158
202,0.003,0.275,0.151,0.249,0.159,0.145,0.193,0.249,0.186,0.164,0.16,0.194,0.187,0.149
203,0.003,0.27,0.144,0.24,0.151,0.143,0.184,0.242,0.179,0.156,0.153,0.187,0.179,0.142
204,0.003,0.265,0.138,0.232,0.144,0.14,0.176,0.235,0.172,0.149,0.146,0.18,0.171,0.135
205,0.003,0.259,0.132,0.225,0.137,0.137,0.169,0.229,0.165,0.143,0.14,0.174,0.165,0.13
206,0.003,0.254,0.127,0.218,0.132,0.135,0.163,0.222,0.16,0.138,0.135,0.168,0.159,0.125
207,0.003,0.248,0.123,0.212,0.127,0.132,0.158,0.216,0.155,0.133,0.13,0.164,0.154,0.121
208,0.003,0.242,0.119,0.205,0.122,0.129,0.153,0.21,0.15,0.129,0.127,0.159,0.149,0.118
209,0.003,0.235,0.115,0.199,0.118,0.126,0.148,0.203,0.145,0.124,0.122,0.154,0.144,0.114
210,0.003,0.228,0.112,0.192,0.114,0.123,0.145,0.196,0.14,0.121,0.119,0.149,0.14,0.111
211,0.003,0.22,0.109,0.186,0.11,0.12,0.141,0.189,0.136,0.117,0.116,0.144,0.135,0.108
212,0.003,0.212,0.105,0.179,0.107,0.116,0.137,0.182,0.131,0.114,0.113,0.139,0.131,0.105
213,0.003,0.203,0.103,0.171,0.103,0.113,0.134,0.174,0.127,0.111,0.11,0.134,0.127,0.102
214,0.003,0.194,0.1,0.164,0.1,0.109,0.13,0.166,0.122,0.108,0.107,0.129,0.123,0.099
215,0.003,0.186,0.098,0.158,0.098,0.106,0.128,0.158,0.118,0.105,0.105,0.124,0.119,0.097
216,0.003,0.178,0.095,0.151,0.095,0.103,0.125,0.15,0.114,0.102,0.102,0.12,0.115,0.095
217,0.003,0.169,0.093,0.144,0.092,0.099,0.122,0.143,0.11,0.1,0.1,0.115,0.111,0.092
218,0.003,0.161,0.091,0.138,0.09,0.096,0.119,0.136,0.106,0.097,0.098,0.111,0.108,0.09
219,0.003,0.154,0.089,0.132,0.088,0.093,0.117,0.129,0.103,0.095,0.096,0.107,0.105,0.088
220,0.003,0.146,0.087,0.126,0.086,0.09,0.114,0.122,0.099,0.093,0.094,0.103,0.102,0.086
221,0.003,0.139,0.086,0.121,0.084,0.087,0.112,0.116,0.096,0.091,0.092,0.099,0.099,0.085
222,0.003,0.132,0.084,0.116,0.082,0.085,0.109,0.11,0.093,0.089,0.091,0.095,0.096,0.083
223,0.003,0.126,0.082,0.111,0.081,0.082,0.107,0.105,0.091,0.088,0.089,0.092,0.093,0.082
224,0.002,0.12,0.08,0.106,0.079,0.08,0.105,0.099,0.087,0.086,0.087,0.089,0.091,0.08
225,0.003,0.115,0.079,0.101,0.077,0.077,0.103,0.094,0.085,0.084,0.086,0.086,0.089,0.078
226,0.003,0.109,0.077,0.097,0.076,0.075,0.1,0.09,0.083,0.082,0.084,0.083,0.086,0.077
227,0.003,0.105,0.076,0.094,0.074,0.073,0.098,0.086,0.08,0.081,0.083,0.08,0.084,0.076
228,0.003,0.101,0.075,0.09,0.073,0.072,0.096,0.083,0.078,0.08,0.081,0.078,0.082,0.074
229,0.003,0.097,0.073,0.087,0.071,0.07,0.094,0.079,0.076,0.078,0.08,0.076,0.08,0.073
230,0.003,0.093,0.072,0.084,0.07,0.068,0.092,0.076,0.074,0.077,0.078,0.074,0.078,0.071
231,0.002,0.09,0.071,0.081,0.069,0.067,0.09,0.073,0.072,0.075,0.077,0.072,0.076,0.07
232,0.002,0.087,0.069,0.078,0.067,0.065,0.089,0.07,0.071,0.074,0.076,0.069,0.074,0.069
233,0.002,0.085,0.068,0.076,0.066,0.064,0.087,0.068,0.069,0.073,0.074,0.068,0.073,0.068
234,0.002,0.082,0.067,0.074,0.065,0.063,0.085,0.066,0.067,0.072,0.073,0.066,0.071,0.066
235,0.002,0.08,0.066,0.072,0.064,0.061,0.084,0.064,0.066,0.07,0.072,0.065,0.07,0.065
236,0.002,0.078,0.065,0.07,0.063,0.06,0.082,0.063,0.065,0.069,0.071,0.064,0.069,0.064
237,0.002,0.076,0.064,0.069,0.062,0.059,0.081,0.061,0.064,0.068,0.07,0.063,0.067,0.063
238,0.002,0.075,0.063,0.067,0.061,0.058,0.08,0.06,0.062,0.067,0.069,0.061,0.066,0.062
239,0.002,0.073,0.062,0.066,0.06,0.057,0.079,0.059,0.061,0.066,0.068,0.06,0.065,0.061
240,0.002,0.072,0.061,0.065,0.059,0.057,0.078,0.058,0.061,0.066,0.067,0.06,0.064,0.061
241,0.002,0.071,0.06,0.064,0.058,0.056,0.077,0.057,0.06,0.065,0.066,0.059,0.063,0.06
242,0.002,0.07,0.06,0.063,0.057,0.055,0.076,0.056,0.059,0.064,0.065,0.058,0.062,0.059
243,0.002,0.069,0.059,0.062,0.057,0.054,0.075,0.055,0.058,0.063,0.064,0.057,0.062,0.058
244,0.002,0.068,0.058,0.061,0.056,0.053,0.074,0.054,0.057,0.063,0.064,0.056,0.061,0.057
245,0.002,0.067,0.058,0.061,0.055,0.053,0.073,0.053,0.057,0.062,0.063,0.055,0.06,0.057
246,0.002,0.066,0.057,0.06,0.055,0.052,0.073,0.053,0.056,0.061,0.062,0.055,0.06,0.056
247,0.002,0.065,0.056,0.059,0.054,0.052,0.072,0.052,0.055,0.061,0.062,0.054,0.059,0.056
248,0.002,0.065,0.056,0.059,0.054,0.051,0.072,0.051,0.055,0.06,0.061,0.054,0.058,0.055
249,0.002,0.064,0.056,0.058,0.053,0.051,0.071,0.051,0.054,0.06,0.061,0.053,0.058,0.055
250,0.002,0.063,0.055,0.058,0.053,0.05,0.071,0.051,0.054,0.059,0.06,0.053,0.057,0.054
251,0.002,0.063,0.055,0.057,0.052,0.05,0.07,0.05,0.054,0.059,0.06,0.052,0.057,0.054
252,0.002,0.062,0.054,0.057,0.052,0.049,0.07,0.05,0.053,0.058,0.059,0.052,0.057,0.054
253,0.002,0.062,0.054,0.056,0.052,0.049,0.069,0.049,0.053,0.058,0.059,0.051,0.056,0.053
254,0.002,0.061,0.053,0.055,0.051,0.048,0.069,0.049,0.052,0.057,0.058,0.051,0.055,0.053
255,0.002,0.061,0.053,0.055,0.051,0.048,0.069,0.048,0.052,0.057,0.058,0.05,0.055,0.052
256,0.002,0.06,0.052,0.055,0.051,0.047,0.068,0.048,0.051,0.056,0.057,0.05,0.054,0.052
257,0.002,0.06,0.052,0.054,0.05,0.047,0.068,0.048,0.051,0.056,0.057,0.049,0.054,0.051
258,0.002,0.059,0.052,0.054,0.05,0.047,0.068,0.047,0.051,0.055,0.056,0.049,0.054,0.051
259,0.002,0.059,0.051,0.053,0.049,0.046,0.067,0.047,0.05,0.055,0.056,0.049,0.053,0.051
260,0.002,0.058,0.051,0.053,0.049,0.046,0.067,0.046,0.05,0.054,0.055,0.048,0.053,0.05
261,0.002,0.058,0.05,0.052,0.049,0.045,0.066,0.046,0.049,0.054,0.055,0.048,0.052,0.05
262,0.002,0.058,0.05,0.052,0.048,0.045,0.066,0.045,0.049,0.053,0.054,0.047,0.052,0.049
263,0.002,0.057,0.049,0.051,0.048,0.044,0.065,0.045,0.049,0.053,0.054,0.047,0.051,0.049
264,0.002,0.056,0.049,0.051,0.047,0.044,0.064,0.044,0.048,0.052,0.053,0.046,0.051,0.049
265,0.002,0.056,0.048,0.05,0.047,0.044,0.064,0.044,0.048,0.051,0.053,0.046,0.05,0.048
266,0.002,0.056,0.048,0.05,0.046,0.043,0.063,0.043,0.047,0.051,0.052,0.045,0.049,0.047
267,0.001,0.055,0.047,0.049,0.046,0.043,0.062,0.043,0.047,0.05,0.051,0.045,0.049,0.047
268,0.001,0.054,0.047,0.049,0.045,0.042,0.061,0.042,0.046,0.049,0.051,0.044,0.048,0.046
269,0.001,0.054,0.046,0.048,0.045,0.042,0.06,0.041,0.046,0.049,0.05,0.043,0.047,0.045
270,0.001,0.053,0.045,0.047,0.044,0.041,0.06,0.041,0.045,0.048,0.049,0.043,0.046,0.045
271,0.001,0.053,0.045,0.047,0.044,0.041,0.059,0.04,0.045,0.047,0.049,0.042,0.046,0.044
272,0.002,0.053,0.044,0.046,0.043,0.041,0.058,0.04,0.044,0.047,0.048,0.042,0.045,0.044
273,0.002,0.052,0.044,0.046,0.042,0.04,0.057,0.04,0.043,0.046,0.048,0.041,0.045,0.043
274,0.002,0.052,0.043,0.045,0.042,0.04,0.056,0.039,0.043,0.045,0.047,0.041,0.044,0.043
275,0.002,0.051,0.042,0.044,0.041,0.039,0.055,0.038,0.042,0.045,0.046,0.04,0.043,0.042
276,0.001,0.051,0.041,0.043,0.04,0.039,0.054,0.038,0.042,0.044,0.045,0.039,0.042,0.041
277,0.001,0.05,0.041,0.043,0.04,0.038,0.053,0.037,0.041,0.043,0.045,0.038,0.042,0.041
278,0.002,0.05,0.04,0.042,0.039,0.038,0.052,0.036,0.04,0.042,0.044,0.038,0.041,0.04
279,0.001,0.049,0.039,0.042,0.038,0.038,0.052,0.036,0.04,0.042,0.043,0.037,0.04,0.039
280,0.002,0.049,0.039,0.041,0.037,0.037,0.051,0.035,0.039,0.041,0.042,0.037,0.039,0.039
281,0.001,0.048,0.038,0.04,0.037,0.037,0.05,0.035,0.038,0.04,0.042,0.036,0.039,0.038
282,0.002,0.048,0.037,0.04,0.036,0.036,0.049,0.034,0.038,0.039,0.041,0.035,0.038,0.037
283,0.001,0.047,0.036,0.039,0.035,0.036,0.048,0.033,0.037,0.038,0.04,0.035,0.037,0.036
284,0.001,0.046,0.036,0.038,0.034,0.035,0.047,0.033,0.036,0.038,0.039,0.034,0.036,0.036
285,0.001,0.046,0.035,0.038,0.034,0.035,0.046,0.032,0.036,0.037,0.039,0.033,0.036,0.035
286,0.001,0.045,0.034,0.037,0.033,0.035,0.046,0.032,0.035,0.036,0.038,0.033,0.035,0.034
287,0.001,0.045,0.033,0.036,0.032,0.034,0.045,0.031,0.035,0.036,0.037,0.032,0.034,0.034
288,0.001,0.044,0.033,0.036,0.031,0.033,0.044,0.03,0.034,0.035,0.036,0.032,0.033,0.033
289,0.001,0.043,0.032,0.035,0.031,0.033,0.043,0.029,0.033,0.034,0.035,0.031,0.032,0.032
290,0.001,0.043,0.031,0.034,0.03,0.032,0.043,0.029,0.032,0.033,0.035,0.03,0.031,0.031
291,0.001,0.043,0.031,0.034,0.029,0.032,0.042,0.029,0.032,0.032,0.034,0.03,0.031,0.031
292,0.001,0.042,0.03,0.033,0.029,0.032,0.041,0.028,0.031,0.032,0.033,0.029,0.03,0.03
293,0.001,0.041,0.029,0.032,0.028,0.031,0.04,0.027,0.03,0.031,0.033,0.028,0.03,0.03
294,0.001,0.041,0.029,0.032,0.027,0.031,0.04,0.027,0.03,0.03,0.032,0.028,0.029,0.029
295,0.001,0.04,0.028,0.031,0.027,0.03,0.039,0.026,0.029,0.029,0.031,0.027,0.028,0.028
296,0.001,0.04,0.028,0.031,0.026,0.03,0.039,0.026,0.029,0.029,0.031,0.027,0.028,0.028
297,0.001,0.039,0.027,0.03,0.025,0.029,0.038,0.025,0.028,0.028,0.03,0.026,0.027,0.027
298,0.001,0.039,0.027,0.03,0.025,0.029,0.037,0.024,0.028,0.028,0.03,0.026,0.026,0.027
299,0.001,0.038,0.026,0.029,0.024,0.029,0.036,0.024,0.027,0.027,0.029,0.025,0.026,0.026
300,0.001,0.038,0.026,0.029,0.024,0.028,0.036,0.024,0.027,0.027,0.029,0.025,0.025,0.026
301,0.001,0.037,0.025,0.028,0.023,0.028,0.035,0.023,0.026,0.026,0.028,0.024,0.025,0.025
302,0.001,0.037,0.025,0.028,0.023,0.028,0.035,0.023,0.026,0.026,0.028,0.024,0.024,0.025
303,0.001,0.036,0.024,0.027,0.022,0.027,0.034,0.022,0.025,0.025,0.027,0.023,0.024,0.024
304,0.001,0.036,0.024,0.027,0.022,0.027,0.034,0.022,0.024,0.024,0.026,0.023,0.023,0.024
305,0.001,0.036,0.023,0.026,0.021,0.027,0.033,0.022,0.024,0.024,0.026,0.022,0.023,0.023
306,0.001,0.035,0.023,0.026,0.021,0.027,0.033,0.021,0.024,0.024,0.026,0.022,0.023,0.023
307,0.001,0.035,0.022,0.026,0.02,0.026,0.032,0.02,0.023,0.023,0.025,0.022,0.022,0.022
308,0.001,0.034,0.022,0.025,0.02,0.026,0.032,0.02,0.023,0.023,0.025,0.021,0.021,0.022
309,0.001,0.034,0.022,0.025,0.019,0.025,0.031,0.02,0.023,0.022,0.024,0.021,0.021,0.022
310,0.001,0.034,0.021,0.024,0.019,0.025,0.031,0.02,0.022,0.022,0.024,0.021,0.021,0.021
311,0.001,0.033,0.021,0.024,0.018,0.025,0.031,0.019,0.022,0.022,0.024,0.02,0.021,0.021
312,0.001,0.033,0.02,0.024,0.018,0.024,0.031,0.019,0.021,0.021,0.023,0.02,0.02,0.021
313,0.001,0.032,0.02,0.023,0.018,0.024,0.03,0.018,0.021,0.021,0.023,0.019,0.02,0.02
314,0.001,0.032,0.02,0.023,0.017,0.024,0.03,0.018,0.02,0.02,0.023,0.019,0.019,0.02
315,0.001,0.032,0.02,0.022,0.017,0.023,0.029,0.018,0.02,0.02,0.022,0.019,0.019,0.02
316,0.001,0.031,0.019,0.022,0.017,0.023,0.029,0.018,0.02,0.02,0.021,0.018,0.019,0.019
317,0.001,0.031,0.019,0.022,0.017,0.023,0.029,0.017,0.02,0.019,0.021,0.018,0.018,0.019
318,0.001,0.03,0.019,0.022,0.016,0.023,0.029,0.017,0.019,0.019,0.021,0.018,0.018,0.018
319,0.001,0.03,0.018,0.022,0.016,0.022,0.028,0.017,0.019,0.019,0.021,0.018,0.018,0.018
320,0.001,0.03,0.018,0.021,0.015,0.022,0.028,0.016,0.019,0.018,0.02,0.017,0.017,0.018
321,0.001,0.03,0.017,0.021,0.015,0.022,0.027,0.016,0.018,0.018,0.02,0.017,0.017,0.018
322,0.001,0.029,0.017,0.02,0.015,0.021,0.027,0.016,0.018,0.018,0.02,0.017,0.017,0.017
323,0.001,0.029,0.017,0.02,0.014,0.021,0.027,0.015,0.018,0.017,0.019,0.016,0.017,0.017
324,0.001,0.029,0.017,0.02,0.014,0.021,0.027,0.016,0.017,0.017,0.019,0.016,0.016,0.017
325,0.002,0.028,0.016,0.02,0.014,0.021,0.027,0.015,0.017,0.017,0.019,0.016,0.016,0.017
326,0.001,0.028,0.016,0.019,0.014,0.02,0.026,0.015,0.017,0.017,0.019,0.016,0.016,0.016
327,0.001,0.027,0.016,0.019,0.013,0.02,0.026,0.014,0.016,0.016,0.018,0.015,0.015,0.016
328,0.001,0.027,0.016,0.019,0.013,0.02,0.025,0.014,0.016,0.016,0.018,0.016,0.015,0.016
329,0.001,0.027,0.015,0.019,0.013,0.02,0.025,0.014,0.016,0.016,0.018,0.015,0.015,0.016
330,0.001,0.027,0.015,0.019,0.013,0.02,0.025,0.014,0.016,0.016,0.018,0.015,0.015,0.015
331,0.001,0.026,0.015,0.018,0.013,0.019,0.025,0.014,0.015,0.016,0.017,0.014,0.015,0.015
332,0.001,0.026,0.015,0.018,0.012,0.019,0.025,0.013,0.015,0.015,0.017,0.014,0.014,0.015
333,0.001,0.026,0.014,0.018,0.012,0.018,0.024,0.013,0.015,0.015,0.017,0.014,0.014,0.015
334,0.001,0.025,0.014,0.017,0.012,0.018,0.024,0.013,0.014,0.014,0.016,0.014,0.014,0.014
335,0.001,0.025,0.014,0.017,0.011,0.018,0.024,0.013,0.014,0.014,0.016,0.014,0.013,0.014
336,0.001,0.025,0.014,0.017,0.011,0.018,0.023,0.013,0.014,0.014,0.016,0.013,0.013,0.014
337,0.001,0.024,0.014,0.016,0.011,0.017,0.023,0.012,0.014,0.013,0.015,0.013,0.013,0.013
338,0.001,0.024,0.013,0.016,0.011,0.018,0.023,0.012,0.014,0.014,0.016,0.013,0.013,0.014
339,0.002,0.024,0.013,0.017,0.011,0.018,0.023,0.012,0.014,0.014,0.016,0.013,0.013,0.014
340,0.003,0.025,0.015,0.018,0.012,0.018,0.024,0.013,0.015,0.015,0.017,0.014,0.014,0.014
341,0.001,0.023,0.013,0.016,0.01,0.017,0.022,0.012,0.013,0.013,0.015,0.012,0.013,0.013
342,0.001,0.023,0.013,0.016,0.01,0.016,0.022,0.011,0.013,0.013,0.014,0.012,0.012,0.013
343,0.001,0.022,0.012,0.016,0.01,0.016,0.022,0.011,0.013,0.012,0.015,0.012,0.012,0.012
344,0.001,0.022,0.012,0.015,0.01,0.016,0.021,0.011,0.012,0.012,0.014,0.011,0.012,0.012
345,0.001,0.022,0.012,0.015,0.01,0.016,0.022,0.011,0.012,0.012,0.014,0.012,0.012,0.012
346,0.001,0.021,0.012,0.015,0.01,0.015,0.021,0.011,0.012,0.012,0.014,0.011,0.011,0.012
347,0.001,0.021,0.011,0.015,0.009,0.015,0.021,0.011,0.012,0.012,0.014,0.011,0.011,0.012
348,0.001,0.021,0.011,0.014,0.009,0.015,0.021,0.011,0.011,0.011,0.013,0.011,0.011,0.011
349,0.001,0.021,0.011,0.014,0.009,0.015,0.021,0.01,0.011,0.011,0.013,0.011,0.011,0.011
350,0.001,0.021,0.011,0.014,0.009,0.015,0.021,0.01,0.011,0.011,0.013,0.011,0.011,0.011
351,0.001,0.02,0.011,0.014,0.009,0.014,0.02,0.01,0.011,0.011,0.013,0.01,0.011,0.011
352,0.001,0.02,0.011,0.014,0.009,0.014,0.02,0.01,0.011,0.011,0.013,0.01,0.01,0.01
353,0.001,0.02,0.011,0.014,0.009,0.014,0.02,0.01,0.011,0.011,0.012,0.01,0.01,0.01
354,0.001,0.019,0.011,0.013,0.008,0.014,0.02,0.009,0.011,0.01,0.012,0.01,0.01,0.01
355,0.001,0.019,0.01,0.013,0.008,0.014,0.019,0.009,0.01,0.01,0.012,0.01,0.01,0.01
356,0.001,0.019,0.01,0.013,0.008,0.013,0.019,0.009,0.01,0.01,0.012,0.01,0.01,0.01
357,0.001,0.019,0.01,0.013,0.008,0.013,0.019,0.009,0.01,0.01,0.012,0.009,0.009,0.01
358,0.001,0.019,0.01,0.013,0.008,0.013,0.019,0.009,0.01,0.01,0.011,0.009,0.009,0.01
359,0.001,0.019,0.01,0.013,0.008,0.013,0.019,0.009,0.01,0.01,0.012,0.009,0.009,0.01
360,0.001,0.018,0.009,0.012,0.008,0.013,0.019,0.009,0.01,0.01,0.011,0.009,0.009,0.01
361,0.001,0.018,0.009,0.012,0.007,0.012,0.018,0.008,0.01,0.009,0.011,0.009,0.009,0.009
362,0.001,0.018,0.009,0.012,0.007,0.012,0.019,0.008,0.009,0.009,0.011,0.008,0.009,0.009
363,0.001,0.017,0.009,0.012,0.007,0.012,0.018,0.008,0.009,0.009,0.011,0.009,0.009,0.009
364,0.001,0.017,0.009,0.011,0.007,0.012,0.018,0.007,0.009,0.009,0.01,0.008,0.008,0.008
365,0.001,0.017,0.009,0.012,0.007,0.012,0.018,0.008,0.009,0.009,0.01,0.008,0.008,0.009
366,0.001,0.017,0.009,0.012,0.007,0.012,0.018,0.008,0.009,0.009,0.01,0.008,0.009,0.009
367,0.001,0.017,0.008,0.011,0.007,0.012,0.018,0.008,0.009,0.008,0.01,0.008,0.008,0.008
368,0.001,0.016,0.008,0.011,0.006,0.011,0.017,0.007,0.008,0.008,0.01,0.007,0.008,0.008
369,0.001,0.016,0.008,0.011,0.006,0.011,0.017,0.007,0.008,0.008,0.01,0.007,0.008,0.008
370,0.001,0.016,0.008,0.011,0.006,0.011,0.017,0.007,0.008,0.008,0.009,0.007,0.008,0.008
371,0.001,0.016,0.008,0.011,0.006,0.011,0.017,0.007,0.008,0.008,0.01,0.007,0.008,0.008
372,0.001,0.015,0.008,0.011,0.006,0.011,0.017,0.007,0.008,0.008,0.009,0.007,0.007,0.008
373,0.001,0.015,0.008,0.01,0.006,0.01,0.017,0.007,0.008,0.008,0.009,0.007,0.007,0.007
374,0.001,0.015,0.008,0.01,0.006,0.01,0.017,0.006,0.008,0.007,0.009,0.007,0.007,0.007
375,0.001,0.015,0.008,0.01,0.006,0.01,0.017,0.006,0.008,0.008,0.009,0.007,0.007,0.007
376,0.001,0.015,0.007,0.01,0.006,0.01,0.017,0.007,0.008,0.008,0.009,0.007,0.007,0.007
377,0.001,0.015,0.007,0.01,0.006,0.01,0.016,0.006,0.007,0.007,0.008,0.006,0.007,0.007
378,0.001,0.014,0.007,0.01,0.006,0.01,0.016,0.006,0.007,0.007,0.009,0.007,0.007,0.007
379,0.001,0.014,0.007,0.01,0.005,0.01,0.016,0.006,0.007,0.007,0.008,0.006,0.007,0.007
380,0.001,0.014,0.007,0.01,0.005,0.01,0.016,0.006,0.007,0.007,0.008,0.006,0.007,0.007
381,0.001,0.014,0.007,0.009,0.005,0.009,0.016,0.006,0.007,0.007,0.008,0.006,0.006,0.006
382,0.001,0.014,0.007,0.01,0.005,0.009,0.016,0.006,0.007,0.007,0.008,0.006,0.006,0.006
383,0.001,0.014,0.007,0.009,0.005,0.009,0.016,0.006,0.007,0.007,0.008,0.006,0.006,0.006
384,0.001,0.013,0.006,0.009,0.005,0.009,0.016,0.005,0.007,0.007,0.008,0.006,0.006,0.006
385,0,0.013,0.006,0.009,0.005,0.009,0.015,0.005,0.006,0.006,0.008,0.006,0.006,0.006
386,0.001,0.013,0.006,0.009,0.005,0.009,0.015,0.005,0.006,0.006,0.007,0.006,0.006,0.006
387,0.001,0.013,0.006,0.009,0.005,0.009,0.015,0.005,0.006,0.006,0.007,0.005,0.006,0.006
388,0.001,0.013,0.006,0.009,0.005,0.009,0.015,0.005,0.006,0.006,0.007,0.005,0.006,0.006
389,0.001,0.013,0.006,0.009,0.005,0.009,0.015,0.005,0.006,0.006,0.007,0.005,0.006,0.006
390,0.001,0.013,0.006,0.009,0.005,0.008,0.015,0.005,0.006,0.006,0.007,0.005,0.006,0.005
391,0,0.012,0.006,0.008,0.004,0.008,0.015,0.005,0.006,0.006,0.007,0.005,0.005,0.005
392,0.001,0.012,0.006,0.008,0.004,0.008,0.015,0.005,0.006,0.006,0.007,0.005,0.005,0.005
393,0,0.012,0.005,0.008,0.004,0.008,0.014,0.005,0.006,0.006,0.007,0.005,0.005,0.005
394,0,0.012,0.005,0.008,0.004,0.008,0.014,0.004,0.005,0.005,0.007,0.005,0.005,0.005
395,0.001,0.012,0.005,0.008,0.004,0.008,0.014,0.004,0.005,0.005,0.007,0.005,0.005,0.005
396,0.001,0.012,0.005,0.008,0.004,0.008,0.014,0.004,0.005,0.005,0.007,0.004,0.005,0.005
397,0,0.011,0.005,0.008,0.004,0.008,0.014,0.004,0.005,0.005,0.006,0.004,0.005,0.005
398,0,0.011,0.005,0.008,0.004,0.007,0.014,0.004,0.005,0.005,0.006,0.004,0.005,0.005
399,0,0.011,0.005,0.008,0.004,0.007,0.014,0.004,0.005,0.005,0.006,0.004,0.005,0.005
400,0.001,0.011,0.005,0.008,0.004,0.007,0.014,0.004,0.005,0.005,0.006,0.004,0.005,0.005
401,0,0.011,0.005,0.008,0.004,0.007,0.014,0.004,0.005,0.005,0.006,0.004,0.005,0.005
402,0,0.011,0.005,0.008,0.004,0.007,0.014,0.004,0.005,0.005,0.006,0.004,0.005,0.004
403,0.001,0.011,0.005,0.007,0.003,0.007,0.013,0.004,0.005,0.005,0.006,0.004,0.005,0.004
404,0,0.011,0.005,0.007,0.003,0.007,0.013,0.004,0.005,0.005,0.006,0.004,0.005,0.004
405,0,0.011,0.005,0.007,0.003,0.007,0.013,0.004,0.005,0.005,0.006,0.004,0.005,0.004
406,0,0.01,0.005,0.007,0.003,0.007,0.013,0.004,0.005,0.005,0.006,0.004,0.004,0.004
407,0,0.01,0.004,0.007,0.003,0.007,0.013,0.004,0.005,0.005,0.005,0.004,0.004,0.004
408,0.001,0.01,0.004,0.007,0.003,0.007,0.013,0.004,0.005,0.005,0.006,0.004,0.004,0.004
409,0,0.01,0.004,0.007,0.003,0.007,0.013,0.004,0.004,0.005,0.006,0.004,0.004,0.004
410,0.001,0.01,0.004,0.007,0.003,0.006,0.013,0.004,0.004,0.004,0.005,0.004,0.004,0.004
411,0,0.01,0.004,0.007,0.003,0.006,0.013,0.003,0.004,0.004,0.005,0.004,0.004,0.004
412,0,0.01,0.004,0.007,0.003,0.006,0.013,0.003,0.004,0.004,0.005,0.004,0.004,0.004
413,0.001,0.01,0.004,0.007,0.003,0.006,0.013,0.003,0.004,0.004,0.005,0.004,0.004,0.004
414,0.001,0.01,0.004,0.007,0.003,0.006,0.013,0.003,0.004,0.004,0.005,0.004,0.004,0.004
415,0.001,0.01,0.004,0.007,0.003,0.006,0.013,0.003,0.004,0.005,0.005,0.004,0.004,0.004
416,0.001,0.01,0.004,0.007,0.003,0.006,0.013,0.003,0.004,0.005,0.005,0.004,0.004,0.004
417,0,0.009,0.004,0.007,0.003,0.006,0.013,0.003,0.004,0.004,0.005,0.003,0.004,0.003
418,0,0.009,0.004,0.007,0.003,0.006,0.012,0.003,0.004,0.004,0.005,0.003,0.004,0.003
419,0.001,0.009,0.004,0.007,0.003,0.006,0.012,0.003,0.004,0.004,0.005,0.003,0.004,0.004
420,0.001,0.009,0.004,0.007,0.003,0.006,0.012,0.003,0.004,0.004,0.005,0.003,0.004,0.004
421,0,0.009,0.004,0.006,0.003,0.006,0.012,0.003,0.004,0.004,0.005,0.003,0.004,0.003
422,0,0.009,0.004,0.006,0.003,0.006,0.012,0.003,0.004,0.004,0.005,0.003,0.004,0.003
423,0.001,0.009,0.004,0.006,0.003,0.006,0.012,0.003,0.004,0.004,0.005,0.003,0.004,0.003
424,0.001,0.009,0.004,0.006,0.003,0.006,0.012,0.003,0.004,0.004,0.005,0.003,0.004,0.003
425,0.001,0.009,0.004,0.006,0.003,0.006,0.012,0.003,0.004,0.004,0.005,0.003,0.004,0.003
426,0.001,0.009,0.004,0.006,0.003,0.006,0.012,0.003,0.004,0.004,0.005,0.003,0.004,0.003
427,0.001,0.009,0.004,0.006,0.003,0.005,0.012,0.003,0.004,0.004,0.004,0.003,0.003,0.003
428,0.001,0.008,0.003,0.006,0.003,0.005,0.012,0.003,0.003,0.004,0.004,0.003,0.003,0.003
429,0,0.008,0.003,0.006,0.002,0.005,0.012,0.003,0.003,0.003,0.004,0.003,0.003,0.003
430,0,0.008,0.003,0.006,0.002,0.005,0.012,0.003,0.003,0.003,0.004,0.003,0.003,0.003
431,0,0.008,0.003,0.006,0.002,0.005,0.012,0.003,0.003,0.003,0.004,0.003,0.003,0.003
432,0,0.008,0.003,0.006,0.002,0.005,0.012,0.002,0.003,0.003,0.004,0.002,0.003,0.003
433,0,0.008,0.003,0.006,0.002,0.005,0.011,0.002,0.003,0.003,0.004,0.002,0.003,0.003
434,0,0.008,0.003,0.006,0.002,0.005,0.011,0.002,0.003,0.003,0.004,0.002,0.003,0.003
435,0,0.008,0.003,0.005,0.002,0.005,0.011,0.002,0.003,0.003,0.004,0.002,0.003,0.003
436,0,0.008,0.003,0.005,0.002,0.005,0.011,0.002,0.003,0.003,0.004,0.002,0.003,0.003
437,0,0.008,0.003,0.006,0.002,0.005,0.011,0.002,0.003,0.003,0.004,0.002,0.003,0.003
438,0,0.008,0.003,0.005,0.002,0.005,0.011,0.002,0.003,0.003,0.004,0.002,0.003,0.002
439,0,0.007,0.003,0.005,0.002,0.005,0.011,0.002,0.003,0.003,0.004,0.002,0.003,0.002
440,0,0.007,0.003,0.005,0.002,0.005,0.011,0.002,0.003,0.003,0.004,0.002,0.003,0.003
441,0,0.007,0.003,0.005,0.002,0.004,0.011,0.002,0.003,0.003,0.004,0.002,0.003,0.002
442,0,0.007,0.003,0.005,0.002,0.005,0.011,0.002,0.003,0.003,0.004,0.002,0.003,0.002
443,0,0.007,0.003,0.005,0.002,0.004,0.011,0.002,0.003,0.003,0.004,0.002,0.003,0.002
444,0,0.007,0.003,0.005,0.002,0.004,0.011,0.002,0.003,0.003,0.004,0.002,0.003,0.002
445,0,0.007,0.003,0.005,0.002,0.004,0.011,0.002,0.003,0.003,0.003,0.002,0.003,0.002
446,0,0.007,0.003,0.005,0.002,0.004,0.011,0.002,0.003,0.003,0.004,0.002,0.003,0.002
447,0,0.007,0.003,0.005,0.002,0.004,0.011,0.002,0.003,0.003,0.003,0.002,0.003,0.002
448,0,0.007,0.003,0.005,0.002,0.004,0.011,0.002,0.002,0.003,0.003,0.002,0.003,0.002
449,0,0.007,0.003,0.005,0.002,0.004,0.011,0.002,0.003,0.003,0.003,0.002,0.003,0.002
450,0,0.007,0.003,0.005,0.002,0.004,0.01,0.002,0.003,0.003,0.003,0.002,0.002,0.002
451,0,0.007,0.002,0.005,0.002,0.004,0.01,0.002,0.002,0.003,0.003,0.002,0.002,0.002
452,0,0.007,0.002,0.005,0.002,0.004,0.01,0.002,0.002,0.003,0.003,0.002,0.002,0.002
453,0,0.007,0.002,0.005,0.002,0.004,0.01,0.002,0.002,0.003,0.003,0.002,0.002,0.002
454,0,0.007,0.003,0.005,0.002,0.004,0.01,0.002,0.003,0.003,0.003,0.002,0.003,0.002
455,0,0.007,0.003,0.005,0.002,0.004,0.011,0.002,0.002,0.003,0.003,0.002,0.003,0.002
456,0,0.007,0.003,0.005,0.002,0.004,0.01,0.002,0.002,0.003,0.003,0.002,0.003,0.002
457,0,0.007,0.002,0.005,0.002,0.004,0.01,0.002,0.002,0.003,0.003,0.002,0.002,0.002
458,0,0.007,0.002,0.005,0.002,0.004,0.01,0.002,0.002,0.002,0.003,0.002,0.002,0.002
459,0,0.006,0.002,0.005,0.002,0.004,0.01,0.002,0.002,0.002,0.003,0.002,0.002,0.002
460,0,0.006,0.002,0.005,0.002,0.004,0.01,0.002,0.002,0.002,0.003,0.002,0.002,0.002
461,0,0.006,0.002,0.005,0.002,0.004,0.01,0.002,0.002,0.003,0.003,0.002,0.002,0.002
462,0,0.006,0.002,0.005,0.002,0.004,0.01,0.002,0.002,0.002,0.003,0.002,0.002,0.002
463,0,0.006,0.002,0.004,0.002,0.004,0.01,0.001,0.002,0.002,0.003,0.001,0.002,0.002
464,0,0.006,0.002,0.005,0.002,0.004,0.01,0.002,0.002,0.002,0.003,0.001,0.002,0.002
465,0,0.006,0.002,0.004,0.002,0.004,0.01,0.001,0.002,0.002,0.003,0.001,0.002,0.002
466,0,0.006,0.002,0.004,0.002,0.004,0.01,0.001,0.002,0.002,0.003,0.001,0.002,0.002
467,0,0.006,0.002,0.004,0.002,0.004,0.01,0.001,0.002,0.002,0.003,0.001,0.002,0.002
468,0,0.006,0.002,0.004,0.002,0.004,0.01,0.001,0.002,0.002,0.003,0.001,0.002,0.002
469,0,0.006,0.002,0.004,0.001,0.004,0.01,0.001,0.002,0.002,0.003,0.001,0.002,0.002
470,0,0.006,0.002,0.004,0.001,0.003,0.01,0.001,0.002,0.002,0.003,0.001,0.002,0.002
471,0,0.006,0.002,0.004,0.001,0.003,0.01,0.001,0.002,0.002,0.003,0.001,0.002,0.002
472,0,0.006,0.002,0.004,0.001,0.003,0.01,0.001,0.002,0.002,0.003,0.001,0.002,0.002
473,0,0.006,0.002,0.004,0.001,0.003,0.01,0.001,0.002,0.002,0.003,0.001,0.002,0.002
474,0,0.006,0.002,0.004,0.001,0.003,0.01,0.001,0.002,0.002,0.003,0.001,0.002,0.002
475,0,0.006,0.002,0.004,0.001,0.003,0.009,0.001,0.002,0.002,0.003,0.001,0.002,0.001
476,0,0.006,0.002,0.004,0.001,0.003,0.009,0.001,0.002,0.002,0.003,0.001,0.002,0.002
477,0,0.006,0.002,0.004,0.001,0.003,0.009,0.001,0.002,0.002,0.003,0.001,0.002,0.002
478,0,0.006,0.002,0.004,0.001,0.003,0.009,0.001,0.002,0.002,0.002,0.001,0.002,0.001
479,0,0.006,0.002,0.004,0.001,0.003,0.009,0.001,0.002,0.002,0.003,0.001,0.002,0.001
480,0,0.006,0.002,0.004,0.001,0.003,0.009,0.001,0.002,0.002,0.002,0.001,0.002,0.001
481,0,0.005,0.002,0.004,0.001,0.003,0.009,0.001,0.002,0.002,0.002,0.001,0.002,0.001
482,0,0.005,0.002,0.004,0.001,0.003,0.009,0.001,0.002,0.002,0.002,0.001,0.002,0.001
483,0,0.005,0.002,0.004,0.001,0.003,0.009,0.001,0.002,0.002,0.002,0.001,0.002,0.001
484,0,0.005,0.002,0.004,0.001,0.003,0.009,0.001,0.002,0.002,0.002,0.001,0.002,0.001
485,0,0.005,0.002,0.004,0.001,0.003,0.009,0.001,0.002,0.002,0.002,0.001,0.002,0.001
486,0,0.005,0.002,0.004,0.001,0.003,0.009,0.001,0.002,0.002,0.002,0.001,0.002,0.001
487,0,0.005,0.002,0.004,0.001,0.003,0.009,0.001,0.002,0.002,0.002,0.001,0.002,0.001
488,0,0.005,0.002,0.004,0.001,0.003,0.009,0.001,0.002,0.002,0.002,0.001,0.002,0.001
489,0,0.005,0.002,0.004,0.001,0.003,0.009,0.001,0.002,0.002,0.002,0.001,0.002,0.001
490,0,0.005,0.002,0.004,0.001,0.003,0.009,0.001,0.002,0.002,0.002,0.001,0.002,0.001
491,0,0.005,0.002,0.004,0.001,0.003,0.009,0.001,0.002,0.002,0.002,0.001,0.002,0.001
492,0,0.005,0.001,0.004,0.001,0.003,0.009,0.001,0.001,0.002,0.002,0.001,0.001,0.001
493,0,0.005,0.002,0.003,0.001,0.003,0.009,0.001,0.001,0.002,0.002,0.001,0.002,0.001
494,0,0.005,0.002,0.004,0.001,0.003,0.009,0.001,0.002,0.002,0.002,0.001,0.002,0.001
495,0,0.005,0.002,0.004,0.001,0.003,0.009,0.001,0.002,0.002,0.002,0.001,0.002,0.001
496,0,0.005,0.002,0.004,0.001,0.003,0.009,0.001,0.001,0.002,0.002,0.001,0.002,0.001
497,0,0.005,0.001,0.003,0.001,0.003,0.009,0.001,0.001,0.002,0.002,0.001,0.001,0.001
498,0,0.005,0.001,0.004,0.001,0.003,0.009,0.001,0.001,0.002,0.002,0.001,0.002,0.001
499,0,0.005,0.002,0.004,0.001,0.003,0.009,0.001,0.001,0.002,0.002,0.001,0.002,0.001
500,0,0.005,0.001,0.003,0.001,0.003,0.009,0.001,0.001,0.002,0.002,0.001,0.001,0.001
501,0,0.005,0.001,0.003,0.001,0.003,0.009,0.001,0.001,0.002,0.002,0.001,0.002,0.001
502,0,0.005,0.001,0.003,0.001,0.003,0.008,0.001,0.001,0.002,0.002,0.001,0.001,0.001
503,0,0.005,0.001,0.003,0.001,0.003,0.008,0.001,0.001,0.002,0.002,0.001,0.001,0.001
504,0,0.005,0.001,0.003,0.001,0.003,0.008,0.001,0.001,0.002,0.002,0.001,0.001,0.001
505,0,0.005,0.001,0.003,0.001,0.003,0.008,0.001,0.001,0.002,0.002,0.001,0.002,0.001
506,0,0.005,0.002,0.004,0.001,0.003,0.009,0.001,0.001,0.002,0.002,0.001,0.002,0.001
507,0,0.005,0.001,0.003,0.001,0.003,0.008,0.001,0.001,0.002,0.002,0.001,0.001,0.001
508,0,0.005,0.001,0.003,0.001,0.003,0.008,0.001,0.001,0.002,0.002,0.001,0.001,0.001
509,0,0.005,0.001,0.003,0.001,0.003,0.008,0.001,0.001,0.002,0.002,0.001,0.002,0.001
510,0,0.005,0.001,0.003,0.001,0.003,0.008,0.001,0.001,0.002,0.002,0.001,0.001,0.001
511,0,0.005,0.001,0.003,0.001,0.003,0.008,0.001,0.001,0.002,0.002,0.001,0.001,0.001
512,0,0.005,0.001,0.003,0.001,0.003,0.008,0.001,0.001,0.002,0.002,0.001,0.002,0.001
513,0,0.005,0.001,0.003,0.001,0.003,0.008,0.001,0.001,0.002,0.002,0.001,0.001,0.001
514,0,0.005,0.001,0.003,0.001,0.003,0.008,0.001,0.001,0.002,0.002,0.001,0.001,0.001
515,0,0.005,0.001,0.003,0.001,0.003,0.008,0.001,0.001,0.002,0.002,0.001,0.001,0.001
516,0,0.005,0.001,0.003,0.001,0.002,0.008,0.001,0.001,0.002,0.002,0.001,0.001,0.001
517,0,0.005,0.001,0.003,0.001,0.003,0.008,0.001,0.001,0.002,0.002,0.001,0.001,0.001
518,0,0.005,0.001,0.003,0.001,0.003,0.008,0.001,0.001,0.002,0.002,0.001,0.001,0.001
519,0,0.005,0.001,0.003,0.001,0.003,0.008,0.001,0.001,0.002,0.002,0.001,0.001,0.001
520,0,0.004,0.001,0.003,0.001,0.002,0.008,0.001,0.001,0.001,0.002,0.001,0.001,0.001
521,0,0.004,0.001,0.003,0.001,0.002,0.008,0.001,0.001,0.001,0.002,0.001,0.001,0.001
522,0,0.004,0.001,0.003,0.001,0.002,0.008,0.001,0.001,0.001,0.002,0.001,0.001,0.001
523,0,0.004,0.001,0.003,0.001,0.002,0.008,0.001,0.001,0.001,0.002,0,0.001,0.001
524,0,0.004,0.001,0.003,0.001,0.002,0.008,0.001,0.001,0.001,0.002,0.001,0.001,0.001
525,0,0.004,0.001,0.003,0.001,0.002,0.008,0.001,0.001,0.001,0.002,0.001,0.001,0.001
526,0,0.004,0.001,0.003,0.001,0.002,0.008,0.001,0.001,0.001,0.002,0,0.001,0.001
527,0,0.004,0.001,0.003,0.001,0.002,0.008,0.001,0.001,0.001,0.002,0,0.001,0.001
528,0,0.004,0.001,0.003,0.001,0.002,0.008,0.001,0.001,0.001,0.002,0,0.001,0.001
529,0,0.004,0.001,0.003,0.001,0.002,0.008,0.001,0.001,0.001,0.002,0,0.001,0.001
530,0,0.004,0.001,0.003,0.001,0.002,0.008,0,0.001,0.001,0.002,0,0.001,0.001
531,0,0.004,0.001,0.003,0.001,0.002,0.008,0,0.001,0.001,0.002,0,0.001,0.001
532,0,0.004,0.001,0.003,0.001,0.002,0.008,0,0.001,0.001,0.002,0,0.001,0.001
533,0,0.004,0.001,0.003,0.001,0.002,0.008,0,0.001,0.001,0.002,0,0.001,0.001
534,0,0.004,0.001,0.003,0.001,0.002,0.008,0.001,0.001,0.001,0.002,0,0.001,0.001
535,0,0.004,0.001,0.003,0.001,0.002,0.008,0.001,0.001,0.001,0.002,0.001,0.001,0.001
536,0.001,0.005,0.002,0.004,0.002,0.003,0.009,0.002,0.002,0.002,0.003,0.001,0.002,0.002
537,0,0.004,0.001,0.003,0.001,0.002,0.008,0.001,0.001,0.001,0.002,0.001,0.001,0.001
538,0,0.004,0.001,0.003,0.001,0.002,0.007,0,0.001,0.001,0.002,0,0.001,0.001
539,0,0.004,0.001,0.003,0.001,0.002,0.007,0,0.001,0.001,0.001,0,0.001,0.001
540,0,0.004,0.001,0.003,0.001,0.002,0.007,0,0.001,0.001,0.001,0,0.001,0.001
541,0,0.004,0.001,0.003,0.001,0.002,0.007,0,0.001,0.001,0.001,0,0.001,0.001
542,0,0.004,0.001,0.003,0.001,0.002,0.007,0,0.001,0.001,0.001,0,0.001,0.001
543,0,0.004,0.001,0.003,0.001,0.002,0.007,0,0.001,0.001,0.001,0,0.001,0.001
544,0,0.004,0.001,0.003,0,0.002,0.007,0,0.001,0.001,0.001,0,0.001,0.001
545,0,0.004,0.001,0.003,0.001,0.002,0.007,0,0.001,0.001,0.002,0,0.001,0.001
546,0,0.004,0.001,0.003,0,0.002,0.007,0,0.001,0.001,0.001,0,0.001,0.001
547,0,0.004,0.001,0.003,0,0.002,0.007,0,0.001,0.001,0.001,0,0.001,0.001
548,0,0.004,0.001,0.003,0,0.002,0.007,0,0.001,0.001,0.001,0,0.001,0.001
549,0,0.004,0.001,0.003,0,0.002,0.007,0,0.001,0.001,0.001,0,0.001,0.001
550,0,0.004,0.001,0.003,0.001,0.002,0.007,0,0.001,0.001,0.001,0,0.001,0.001
551,0,0.004,0.001,0.003,0.001,0.002,0.007,0,0.001,0.001,0.001,0,0.001,0.001
552,0,0.004,0.001,0.003,0,0.002,0.007,0,0.001,0.001,0.001,0,0.001,0.001
553,0,0.004,0.001,0.003,0,0.002,0.007,0,0.001,0.001,0.001,0,0.001,0.001
554,0,0.004,0.001,0.003,0.001,0.002,0.007,0,0.001,0.001,0.001,0,0.001,0.001
555,0,0.004,0.001,0.002,0,0.002,0.007,0,0.001,0.001,0.001,0,0.001,0.001
556,0,0.004,0.001,0.002,0,0.002,0.007,0,0.001,0.001,0.001,0,0.001,0.001
557,0,0.004,0.001,0.002,0,0.002,0.007,0,0.001,0.001,0.001,0,0.001,0.001
558,0,0.004,0.001,0.002,0,0.002,0.007,0,0.001,0.001,0.001,0,0.001,0.001
559,0,0.004,0.001,0.002,0,0.002,0.007,0,0.001,0.001,0.001,0,0.001,0.001
560,0,0.004,0.001,0.003,0.001,0.002,0.007,0,0.001,0.001,0.001,0,0.001,0.001
561,0,0.004,0.001,0.003,0.001,0.002,0.007,0,0.001,0.001,0.001,0,0.001,0.001
562,0,0.004,0.001,0.003,0,0.002,0.007,0,0.001,0.001,0.001,0,0.001,0.001
563,0,0.004,0.001,0.003,0,0.002,0.007,0,0.001,0.001,0.001,0,0.001,0.001
564,0,0.004,0.001,0.003,0.001,0.002,0.007,0,0.001,0.001,0.001,0,0.001,0.001
565,0,0.004,0.001,0.003,0.001,0.002,0.007,0,0.001,0.001,0.001,0,0.001,0.001
566,0,0.003,0.001,0.003,0.001,0.002,0.007,0,0.001,0.001,0.001,0,0.001,0.001
567,0,0.003,0.001,0.002,0,0.002,0.007,0,0.001,0.001,0.001,0,0.001,0.001
568,0,0.004,0.001,0.002,0.001,0.002,0.007,0,0.001,0.001,0.001,0,0.001,0.001
569,0,0.004,0.001,0.002,0.001,0.002,0.007,0,0.001,0.001,0.001,0,0.001,0.001
570,0,0.003,0.001,0.002,0,0.002,0.007,0,0.001,0.001,0.001,0,0.001,0.001
571,0,0.003,0.001,0.002,0.001,0.002,0.007,0,0.001,0.001,0.001,0,0.001,0.001
572,0,0.003,0.001,0.002,0,0.002,0.007,0,0.001,0.001,0.001,0,0.001,0.001
573,0,0.003,0.001,0.002,0,0.002,0.007,0,0.001,0.001,0.001,0,0.001,0
574,0,0.003,0.001,0.002,0,0.002,0.007,0,0.001,0.001,0.001,0,0.001,0
575,0,0.003,0.001,0.002,0,0.002,0.007,0,0.001,0.001,0.001,0,0.001,0
576,0,0.003,0.001,0.002,0,0.002,0.007,0,0.001,0.001,0.001,0,0.001,0.001
577,0,0.003,0.001,0.002,0,0.002,0.007,0,0.001,0.001,0.001,0,0.001,0
578,0,0.003,0.001,0.002,0,0.002,0.007,0,0.001,0.001,0.001,0,0.001,0
579,0,0.003,0.001,0.002,0.001,0.002,0.007,0,0.001,0.001,0.001,0,0.001,0.001
580,0,0.003,0.001,0.002,0.001,0.002,0.007,0,0.001,0.001,0.001,0,0.001,0.001
581,0,0.003,0.001,0.002,0,0.002,0.007,0,0.001,0.001,0.001,0,0.001,0
582,0,0.003,0.001,0.002,0,0.002,0.007,0,0.001,0.001,0.001,0,0.001,0.001
583,0,0.003,0.001,0.002,0,0.002,0.007,0,0.001,0.001,0.001,0,0.001,0.001
584,0,0.003,0.001,0.002,0,0.002,0.007,0,0.001,0.001,0.001,0,0.001,0.001
585,0,0.003,0.001,0.002,0,0.002,0.007,0,0.001,0.001,0.001,0,0.001,0.001
586,0,0.003,0.001,0.002,0,0.002,0.007,0,0.001,0.001,0.001,0,0.001,0
587,0,0.003,0.001,0.002,0,0.002,0.007,0,0.001,0.001,0.001,0,0.001,0
588,0,0.003,0.001,0.002,0,0.002,0.007,0,0.001,0.001,0.001,0,0.001,0
589,0,0.003,0.001,0.002,0,0.002,0.007,0,0.001,0.001,0.001,0,0.001,0
590,0,0.003,0.001,0.002,0,0.002,0.007,0,0.001,0.001,0.001,0,0.001,0
591,0,0.003,0.001,0.002,0,0.002,0.007,0,0.001,0.001,0.001,0,0.001,0
592,0,0.003,0.001,0.002,0,0.002,0.007,0,0.001,0.001,0.001,0,0.001,0
593,0,0.003,0.001,0.002,0,0.002,0.007,0,0.001,0.001,0.001,0,0.001,0
594,0,0.003,0.001,0.002,0,0.002,0.007,0,0.001,0.001,0.001,0,0.001,0.001
595,0,0.003,0.001,0.002,0,0.002,0.007,0,0.001,0.001,0.001,0,0.001,0
596,0,0.003,0.001,0.002,0,0.002,0.007,0,0.001,0.001,0.001,0,0.001,0
597,0,0.003,0.001,0.002,0,0.002,0.007,0,0.001,0.001,0.001,0,0.001,0
598,0,0.003,0.001,0.002,0,0.001,0.007,0,0.001,0.001,0.001,0,0.001,0
599,0,0.003,0.001,0.002,0,0.001,0.006,0,0,0.001,0.001,0,0.001,0
600,0,0.003,0.001,0.002,0,0.001,0.006,0,0,0.001,0.001,0,0.001,0
601,0,0.003,0.001,0.002,0,0.001,0.006,0,0.001,0.001,0.001,0,0.001,0
602,0,0.003,0.001,0.002,0,0.002,0.006,0,0.001,0.001,0.001,0,0.001,0
603,0,0.003,0.001,0.002,0,0.002,0.006,0,0.001,0.001,0.001,0,0.001,0
604,0,0.003,0.001,0.002,0,0.001,0.006,0,0.001,0.001,0.001,0,0.001,0
605,0,0.003,0.001,0.002,0,0.001,0.006,0,0.001,0.001,0.001,0,0.001,0
606,0,0.003,0.001,0.002,0,0.002,0.006,0,0.001,0.001,0.001,0,0.001,0
607,0,0.003,0.001,0.002,0,0.001,0.006,0,0.001,0.001,0.001,0,0.001,0
608,0,0.003,0.001,0.002,0,0.001,0.006,0,0.001,0.001,0.001,0,0.001,0
609,0,0.003,0.001,0.002,0,0.001,0.006,0,0.001,0.001,0.001,0,0.001,0
610,0,0.003,0.001,0.002,0,0.001,0.006,0,0.001,0.001,0.001,0,0.001,0
611,0,0.003,0.001,0.002,0,0.001,0.006,0,0.001,0.001,0.001,0,0.001,0
612,0,0.003,0.001,0.002,0,0.001,0.006,0,0.001,0.001,0.001,0,0.001,0
613,0,0.003,0.001,0.002,0,0.001,0.006,0,0.001,0.001,0.001,0,0.001,0
614,0,0.003,0.001,0.002,0,0.001,0.006,0,0.001,0.001,0.001,0,0.001,0
615,0,0.003,0.001,0.002,0,0.001,0.006,0,0.001,0.001,0.001,0,0.001,0
616,0,0.003,0.001,0.002,0,0.001,0.006,0,0.001,0.001,0.001,0,0.001,0
617,0,0.003,0.001,0.002,0,0.001,0.006,0,0.001,0.001,0.001,0,0.001,0
618,0,0.003,0.001,0.002,0,0.001,0.006,0,0.001,0.001,0.001,0,0.001,0
619,0,0.003,0.001,0.002,0,0.001,0.006,0,0,0.001,0.001,0,0.001,0
620,0,0.003,0.001,0.002,0,0.001,0.006,0,0,0.001,0.001,0,0.001,0
621,0,0.003,0.001,0.002,0,0.001,0.006,0,0.001,0.001,0.001,0,0.001,0
622,0,0.003,0.001,0.002,0,0.001,0.006,0,0,0.001,0.001,0,0.001,0
623,0,0.003,0.001,0.002,0,0.001,0.006,0,0,0.001,0.001,0,0.001,0
624,0,0.003,0.001,0.002,0,0.001,0.006,0,0,0.001,0.001,0,0.001,0
625,0,0.003,0.001,0.002,0,0.001,0.006,0,0,0.001,0.001,0,0,0
626,0,0.003,0.001,0.002,0,0.001,0.006,0,0,0.001,0.001,0,0.001,0
627,0,0.003,0.001,0.002,0,0.001,0.006,0,0,0.001,0.001,0,0.001,0
628,0,0.003,0,0.002,0,0.001,0.006,0,0,0.001,0.001,0,0,0
629,0,0.003,0,0.002,0,0.001,0.006,0,0,0.001,0.001,0,0,0
630,0,0.003,0.001,0.002,0,0.001,0.006,0,0,0.001,0.001,0,0,0
631,0,0.003,0.001,0.002,0,0.001,0.006,0,0,0.001,0.001,0,0.001,0
632,0,0.003,0.001,0.002,0,0.001,0.006,0,0,0,0.001,0,0.001,0
633,0,0.003,0.001,0.002,0,0.001,0.006,0,0,0.001,0.001,0,0.001,0
634,0,0.003,0,0.002,0,0.001,0.006,0,0,0.001,0.001,0,0.001,0
635,0,0.003,0,0.002,0,0.001,0.006,0,0,0,0.001,0,0,0
636,0,0.003,0,0.002,0,0.001,0.006,0,0,0,0.001,0,0,0
637,0,0.002,0,0.002,0,0.001,0.006,0,0,0,0.001,0,0,0
638,0,0.002,0,0.002,0,0.001,0.006,0,0,0,0.001,0,0,0
639,0,0.002,0,0.002,0,0.001,0.006,0,0,0,0.001,0,0,0
640,0,0.003,0.001,0.002,0,0.001,0.006,0,0,0,0.001,0,0,0
641,0,0.003,0,0.002,0,0.001,0.006,0,0,0,0.001,0,0,0
642,0,0.003,0,0.002,0,0.001,0.006,0,0,0,0.001,0,0,0
643,0,0.002,0,0.002,0,0.001,0.006,0,0,0,0.001,0,0,0
644,0,0.003,0.001,0.002,0,0.001,0.006,0,0,0.001,0.001,0,0.001,0
645,0,0.003,0.001,0.002,0,0.001,0.006,0,0,0.001,0.001,0,0.001,0
646,0,0.003,0.001,0.002,0,0.001,0.006,0,0,0.001,0.001,0,0.001,0
647,0,0.003,0.001,0.002,0,0.001,0.006,0,0,0.001,0.001,0,0.001,0
648,0,0.003,0.001,0.002,0,0.001,0.006,0,0,0.001,0.001,0,0.001,0
649,0,0.003,0.001,0.002,0,0.001,0.006,0,0,0.001,0.001,0,0.001,0
650,0,0.003,0.001,0.002,0,0.001,0.006,0,0,0.001,0.001,0,0.001,0
651,0,0.003,0.001,0.002,0,0.001,0.006,0,0,0.001,0.001,0,0.001,0
652,0,0.003,0.001,0.002,0,0.001,0.006,0,0,0.001,0.001,0,0.001,0
653,0,0.003,0.001,0.002,0,0.001,0.006,0,0,0.001,0.001,0,0.001,0
654,0,0.003,0.001,0.002,0,0.001,0.006,0,0,0.001,0.001,0,0.001,0
655,0,0.003,0.001,0.002,0,0.001,0.006,0,0,0.001,0.001,0,0.001,0
656,0,0.003,0.001,0.002,0,0.001,0.005,0,0,0.001,0.001,0,0.001,0
657,0,0.003,0.001,0.002,0,0.001,0.005,0,0,0.001,0.001,0,0.001,0
658,0,0.003,0.001,0.002,0,0.001,0.006,0,0,0.001,0.001,0,0.001,0
659,0,0.003,0.001,0.002,0,0.001,0.006,0,0,0.001,0.001,0,0.001,0
660,0,0.003,0.001,0.002,0,0.001,0.006,0,0,0.001,0.001,0,0.001,0
661,0,0.003,0.001,0.002,0,0.001,0.005,0,0,0.001,0.001,0,0.001,0
662,0,0.003,0.001,0.002,0,0.001,0.005,0,0,0.001,0.001,0,0.001,0
663,0,0.003,0.001,0.002,0,0.001,0.005,0,0,0.001,0.001,0,0.001,0
664,0,0.003,0.001,0.002,0,0.001,0.005,0,0,0.001,0.001,0,0.001,0
665,0,0.003,0.001,0.002,0,0.001,0.006,0,0,0.001,0.001,0,0.001,0
666,0,0.003,0.001,0.002,0,0.001,0.005,0,0,0.001,0.001,0,0.001,0
667,0,0.002,0,0.002,0,0.001,0.005,0,0,0.001,0.001,0,0,0
668,0,0.003,0.001,0.002,0,0.001,0.005,0,0,0.001,0.001,0,0.001,0
669,0,0.003,0.001,0.002,0,0.001,0.005,0,0,0.001,0.001,0,0.001,0
670,0,0.003,0.001,0.002,0,0.001,0.005,0,0,0.001,0.001,0,0.001,0
671,0,0.003,0.001,0.002,0,0.001,0.005,0,0,0.001,0.001,0,0.001,0
672,0,0.003,0.001,0.002,0,0.001,0.005,0,0,0.001,0.001,0,0.001,0
673,0,0.003,0.001,0.002,0,0.001,0.005,0,0,0.001,0.001,0,0.001,0
674,0,0.003,0.001,0.002,0,0.001,0.005,0,0,0.001,0.001,0,0.001,0
675,0,0.002,0,0.002,0,0.001,0.005,0,0,0.001,0.001,0,0.001,0
676,0,0.003,0.001,0.002,0,0.001,0.005,0,0,0.001,0.001,0,0.001,0
677,0,0.003,0.001,0.002,0,0.001,0.005,0,0,0.001,0.001,0,0.001,0
678,0,0.002,0.001,0.002,0,0.001,0.005,0,0,0.001,0.001,0,0.001,0
679,0,0.002,0,0.002,0,0.001,0.005,0,0,0.001,0.001,0,0.001,0
680,0,0.002,0.001,0.002,0,0.001,0.005,0,0,0.001,0.001,0,0.001,0
681,0,0.003,0.001,0.002,0,0.001,0.005,0,0,0.001,0.001,0,0.001,0
682,0,0.003,0.001,0.002,0,0.001,0.005,0,0,0.001,0.001,0,0.001,0
683,0,0.002,0.001,0.002,0,0.001,0.005,0,0,0.001,0.001,0,0.001,0
684,0,0.002,0,0.002,0,0.001,0.005,0,0,0.001,0.001,0,0.001,0
685,0,0.003,0.001,0.002,0,0.001,0.005,0,0,0.001,0.001,0,0.001,0
686,0,0.003,0.001,0.002,0,0.001,0.005,0,0,0.001,0.001,0,0.001,0
687,0,0.002,0,0.002,0,0.001,0.005,0,0,0.001,0.001,0,0.001,0
688,0,0.002,0,0.002,0,0.001,0.005,0,0,0.001,0.001,0,0.001,0
689,0,0.002,0,0.002,0,0.001,0.005,0,0,0.001,0.001,0,0.001,0
690,0,0.002,0,0.002,0,0.001,0.005,0,0,0.001,0.001,0,0,0
691,0,0.002,0,0.001,0,0.001,0.005,0,0,0,0.001,0,0,0
692,0,0.002,0,0.001,0,0.001,0.005,0,0,0,0.001,0,0,0
693,0,0.002,0,0.001,0,0.001,0.005,0,0,0,0.001,0,0,0
694,0,0.002,0,0.002,0,0.001,0.005,0,0,0,0.001,0,0,0
695,0,0.002,0,0.002,0,0.001,0.005,0,0,0,0.001,0,0.001,0
696,0,0.002,0,0.002,0,0.001,0.005,0,0,0,0.001,0,0,0
697,0,0.002,0,0.002,0,0.001,0.005,0,0,0.001,0.001,0,0,0
698,0,0.002,0,0.001,0,0.001,0.005,0,0,0,0.001,0,0,0
699,0,0.002,0,0.001,0,0.001,0.005,0,0,0,0.001,0,0.001,0
700,0,0.002,0,0.001,0,0.001,0.005,0,0,0,0.001,0,0.001,0
701,0,0.002,0,0.002,0,0.001,0.005,0,0,0,0.001,0,0.001,0
702,0,0.002,0,0.002,0,0.001,0.005,0,0,0,0.001,0,0.001,0
703,0,0.002,0,0.001,0,0.001,0.005,0,0,0,0.001,0,0,0
704,0,0.002,0,0.001,0,0.001,0.005,0,0,0,0.001,0,0,0
705,0,0.002,0,0.002,0,0.001,0.005,0,0,0,0.001,0,0.001,0
706,0,0.002,0,0.002,0,0.001,0.005,0,0,0,0.001,0,0,0
707,0,0.002,0,0.001,0,0.001,0.005,0,0,0,0.001,0,0,0
708,0,0.002,0,0.001,0,0.001,0.005,0,0,0,0.001,0,0,0
709,0,0.002,0,0.001,0,0.001,0.005,0,0,0,0.001,0,0,0
710,0,0.002,0,0.001,0,0.001,0.005,0,0,0,0.001,0,0,0
711,0,0.002,0,0.001,0,0.001,0.005,0,0,0,0.001,0,0,0
712,0,0.002,0,0.001,0,0.001,0.005,0,0,0,0.001,0,0,0
713,0,0.002,0,0.001,0,0.001,0.005,0,0,0,0.001,0,0,0
714,0,0.002,0,0.001,0,0.001,0.005,0,0,0,0.001,0,0,0
715,0,0.002,0,0.001,0,0.001,0.005,0,0,0,0.001,0,0,0
716,0,0.002,0,0.001,0,0.001,0.005,0,0,0,0.001,0,0,0
717,0,0.002,0,0.001,0,0.001,0.005,0,0,0,0.001,0,0,0
718,0,0.002,0,0.001,0,0.001,0.005,0,0,0,0.001,0,0,0
719,0,0.002,0,0.001,0,0.001,0.005,0,0,0,0.001,0,0,0
720,0,0.002,0,0.001,0,0.001,0.005,0,0,0,0.001,0,0,0
721,0,0.002,0,0.001,0,0.001,0.005,0,0,0,0.001,0,0,0
722,0,0.002,0,0.001,0,0.001,0.005,0,0,0,0.001,0,0,0
723,0,0.002,0,0.001,0,0.001,0.005,0,0,0,0.001,0,0,0
724,0,0.002,0,0.001,0,0.001,0.005,0,0,0,0.001,0,0,0
725,0,0.002,0,0.001,0,0.001,0.005,0,0,0,0.001,0,0,0
726,0,0.002,0,0.001,0,0.001,0.005,0,0,0,0.001,0,0,0
727,0,0.002,0,0.001,0,0.001,0.005,0,0,0,0.001,0,0,0
728,0,0.002,0,0.001,0,0.001,0.005,0,0,0,0.001,0,0,0
729,0,0.002,0,0.001,0,0.001,0.004,0,0,0,0.001,0,0,0
730,0,0.002,0,0.001,0,0.001,0.004,0,0,0,0,0,0,0
731,0,0.002,0,0.001,0,0.001,0.004,0,0,0,0,0,0,0
732,0,0.002,0,0.001,0,0.001,0.004,0,0,0,0,0,0,0
733,0,0.002,0,0.001,0,0.001,0.004,0,0,0,0.001,0,0,0
734,0,0.002,0,0.001,0,0.001,0.004,0,0,0,0,0,0,0
735,0,0.002,0,0.001,0,0.001,0.004,0,0,0,0,0,0,0
736,0,0.002,0,0.001,0,0.001,0.004,0,0,0,0,0,0,0
737,0,0.002,0,0.001,0,0.001,0.004,0,0,0,0,0,0,0
738,0,0.002,0,0.001,0,0.001,0.004,0,0,0,0,0,0,0
739,0,0.002,0,0.001,0,0.001,0.004,0,0,0,0,0,0,0
740,0,0.002,0,0.001,0,0.001,0.004,0,0,0,0,0,0,0
741,0,0.002,0,0.001,0,0.001,0.004,0,0,0,0,0,0,0
742,0,0.002,0,0.001,0,0.001,0.004,0,0,0,0,0,0,0
743,0,0.002,0,0.001,0,0.001,0.004,0,0,0,0.001,0,0,0
744,0,0.002,0,0.001,0,0.001,0.004,0,0,0,0.001,0,0,0
745,0,0.002,0,0.001,0,0.001,0.004,0,0,0,0.001,0,0,0
746,0,0.002,0,0.001,0,0.001,0.004,0,0,0,0.001,0,0,0
747,0,0.002,0,0.001,0,0.001,0.004,0,0,0,0.001,0,0,0
748,0,0.002,0,0.001,0,0.001,0.004,0,0,0,0,0,0,0
749,0,0.002,0,0.001,0,0.001,0.004,0,0,0,0,0,0,0
750,0,0.002,0,0.001,0,0.001,0.004,0,0,0,0,0,0,0
751,0,0.002,0,0.001,0,0.001,0.004,0,0,0,0.001,0,0,0
752,0,0.002,0,0.001,0,0.001,0.004,0,0,0,0.001,0,0,0
753,0,0.002,0,0.001,0,0.001,0.004,0,0,0,0.001,0,0,0
754,0,0.002,0,0.001,0,0.001,0.004,0,0,0,0,0,0,0
755,0,0.002,0,0.001,0,0.001,0.004,0,0,0,0.001,0,0,0
756,0,0.002,0,0.001,0,0.001,0.004,0,0,0,0.001,0,0,0
757,0,0.002,0,0.001,0,0.001,0.004,0,0,0,0.001,0,0,0
758,0,0.002,0,0.001,0,0.001,0.004,0,0,0,0.001,0,0,0
759,0,0.002,0.001,0.002,0,0.001,0.005,0,0,0,0.001,0,0.001,0
760,0.001,0.003,0.001,0.002,0.001,0.002,0.005,0.001,0.001,0.001,0.002,0.001,0.001,0.001
761,0,0.002,0,0.001,0,0.001,0.004,0,0,0,0.001,0,0,0
762,0,0.002,0,0.001,0,0.001,0.004,0,0,0,0.001,0,0,0
763,0,0.002,0,0.001,0,0.001,0.004,0,0,0,0,0,0,0
764,0,0.002,0,0.001,0,0.001,0.004,0,0,0,0.001,0,0,0
765,0,0.002,0,0.001,0,0.001,0.004,0,0,0,0.001,0,0,0
766,0,0.002,0,0.001,0,0.001,0.004,0,0,0,0.001,0,0,0
767,0,0.002,0,0.001,0,0.001,0.004,0,0,0,0.001,0,0,0
768,0,0.002,0,0.001,0,0.001,0.004,0,0,0,0.001,0,0,0
769,0,0.002,0,0.001,0,0.001,0.004,0,0,0,0.001,0,0,0
770,0,0.002,0,0.001,0,0.001,0.004,0,0,0,0.001,0,0,0
771,0,0.002,0,0.001,0,0.001,0.004,0,0,0,0.001,0,0,0
772,0,0.002,0,0.001,0,0.001,0.004,0,0,0,0.001,0,0,0
773,0,0.002,0,0.001,0,0.001,0.004,0,0,0,0.001,0,0,0
774,0,0.002,0,0.001,0,0.001,0.004,0,0,0,0.001,0,0,0
775,0,0.002,0,0.001,0,0.001,0.004,0,0,0,0.001,0,0,0
776,0,0.002,0,0.001,0,0.001,0.004,0,0,0,0.001,0,0,0
777,0,0.002,0,0.001,0,0.001,0.004,0,0,0,0.001,0,0,0
778,0,0.002,0,0.001,0,0.001,0.004,0,0,0,0.001,0,0,0
779,0,0.002,0,0.001,0,0.001,0.004,0,0,0,0.001,0,0,0
780,0,0.002,0,0.001,0,0.001,0.004,0,0,0,0.001,0,0,0
781,0,0.002,0,0.001,0,0.001,0.004,0,0,0,0.001,0,0,0
782,0,0.002,0,0.001,0,0.001,0.004,0,0,0,0.001,0,0,0
783,0,0.002,0,0.001,0,0.001,0.004,0,0,0,0.001,0,0,0
784,0,0.002,0,0.001,0,0.001,0.004,0,0,0,0.001,0,0,0
785,0,0.002,0,0.001,0,0.001,0.004,0,0,0,0.001,0,0,0
786,0,0.002,0,0.001,0,0.001,0.004,0,0,0,0.001,0,0,0
787,0,0.002,0,0.001,0,0.001,0.004,0,0,0,0.001,0,0,0
788,0,0.002,0,0.001,0,0.001,0.004,0,0,0,0.001,0,0,0
789,0,0.002,0,0.001,0,0.001,0.004,0,0,0,0.001,0,0,0
790,0,0.002,0,0.001,0,0.001,0.004,0,0,0,0.001,0,0,0
791,0,0.002,0,0.001,0,0.001,0.004,0,0,0,0.001,0,0,0
792,0,0.002,0,0.001,0,0.001,0.004,0,0,0,0.001,0,0,0
793,0,0.002,0,0.001,0,0.001,0.004,0,0,0,0.001,0,0,0
794,0,0.002,0,0.001,0,0.001,0.004,0,0,0,0.001,0,0,0
795,0,0.002,0,0.001,0,0.001,0.004,0,0,0,0.001,0,0,0
796,0,0.002,0,0.001,0,0.001,0.004,0,0,0,0.001,0,0,0
797,0,0.002,0,0.001,0,0.001,0.004,0,0,0,0.001,0,0,0
798,0,0.002,0,0.001,0,0.001,0.004,0,0,0,0.001,0,0,0
799,0,0.002,0,0.001,0,0.001,0.004,0,0,0,0.001,0,0,0
800,0,0.002,0,0.001,0,0.001,0.004,0,0,0,0.001,0,0,0
801,0,0.002,0,0.001,0,0.001,0.004,0,0,0,0.001,0,0,0
802,0,0.002,0,0.001,0,0.001,0.004,0,0,0,0.001,0,0,0
803,0,0.002,0,0.001,0,0.001,0.004,0,0,0,0.001,0,0,0
804,0,0.002,0,0.001,0,0.001,0.004,0,0,0,0.001,0,0,0
805,0,0.002,0,0.001,0,0.001,0.004,0,0,0,0.001,0,0,0
806,0,0.002,0,0.001,0,0.001,0.004,0,0,0,0.001,0,0,0
807,0,0.002,0,0.001,0,0.001,0.004,0,0,0,0.001,0,0,0
808,0,0.002,0,0.001,0,0.001,0.004,0,0,0,0.001,0,0,0
809,0,0.002,0,0.001,0,0.001,0.004,0,0,0,0.001,0,0,0
810,0,0.002,0,0.001,0,0.001,0.004,0,0,0,0.001,0,0,0
811,0,0.002,0,0.001,0,0.001,0.004,0,0,0,0.001,0,0,0
812,0,0.002,0,0.001,0,0.001,0.004,0,0,0,0.001,0,0,0
813,0,0.002,0,0.001,0,0.001,0.004,0,0,0,0.001,0,0,0
814,0,0.002,0,0.001,0,0.001,0.004,0,0,0,0.001,0,0,0
815,0,0.002,0,0.001,0,0.001,0.004,0,0,0,0.001,0,0,0
816,0,0.002,0,0.001,0,0.001,0.004,0,0,0,0.001,0,0,0
817,0,0.002,0,0.001,0,0.001,0.004,0,0,0,0.001,0,0,0
818,0,0.002,0,0.001,0,0.001,0.004,0,0,0,0.001,0,0,0
819,0,0.002,0,0.001,0,0.001,0.004,0,0,0,0.001,0,0,0
820,0,0.002,0,0.001,0,0.001,0.004,0,0,0,0.001,0,0,0
821,0,0.002,0,0.001,0,0.001,0.004,0,0,0,0.001,0,0,0
822,0,0.002,0,0.001,0,0.001,0.004,0,0,0,0.001,0,0,0
823,0,0.002,0,0.001,0,0.001,0.004,0,0,0,0.001,0,0,0
824,0,0.002,0,0.001,0,0.001,0.004,0,0,0,0.001,0,0,0
825,0,0.002,0,0.001,0,0.001,0.004,0,0,0,0.001,0,0,0
826,0,0.002,0,0.001,0,0.001,0.004,0,0,0,0.001,0,0,0
827,0,0.002,0,0.001,0,0.001,0.004,0,0,0,0.001,0,0,0
828,0,0.002,0,0.001,0,0.001,0.004,0,0,0,0.001,0,0,0
829,0,0.002,0,0.001,0,0.001,0.004,0,0,0,0,0,0,0
830,0,0.002,0,0.001,0,0.001,0.004,0,0,0,0,0,0,0
831,0,0.002,0,0.001,0,0.001,0.004,0,0,0,0,0,0,0
832,0,0.002,0,0.001,0,0.001,0.004,0,0,0,0,0,0,0
833,0,0.002,0,0.001,0,0.001,0.004,0,0,0,0,0,0,0
834,0,0.002,0,0.001,0,0.001,0.004,0,0,0,0,0,0,0
835,0,0.002,0,0.001,0,0.001,0.004,0,0,0,0,0,0,0
836,0,0.002,0,0.001,0,0.001,0.004,0,0,0,0,0,0,0
837,0,0.002,0,0.001,0,0.001,0.004,0,0,0,0,0,0,0
838,0,0.002,0,0.001,0,0.001,0.004,0,0,0,0,0,0,0
839,0,0.002,0,0.001,0,0.001,0.004,0,0,0,0,0,0,0
840,0,0.002,0,0.001,0,0.001,0.004,0,0,0,0,0,0,0
841,0,0.002,0,0.001,0,0.001,0.004,0,0,0,0,0,0,0
842,0,0.002,0,0.001,0,0.001,0.004,0,0,0,0,0,0,0
843,0,0.001,0,0.001,0,0.001,0.004,0,0,0,0,0,0,0
844,0,0.002,0,0.001,0,0.001,0.004,0,0,0,0,0,0,0
845,0,0.002,0,0.001,0,0.001,0.004,0,0,0,0,0,0,0
846,0,0.002,0,0.001,0,0.001,0.004,0,0,0,0,0,0,0
847,0,0.002,0,0.001,0,0.001,0.003,0,0,0,0,0,0,0
848,0,0.002,0,0.001,0,0.001,0.004,0,0,0,0,0,0,0
849,0,0.002,0,0.001,0,0.001,0.004,0,0,0,0,0,0,0
850,0,0.002,0,0.001,0,0.001,0.003,0,0,0,0,0,0,0
