Wavelength nm.,MilliQ,CP2_28oct24_01R2,CC2_28oct24_BOTR2,CP1_28oct24_01R1,CC3_28oct24_01R2,CC3_28oct24_BOTR1,CC4_30sep24_6R1,CC3_28oct24_15R2,CS2_28oct24_01R1,CC4_28oct24_BOTR1,CC4_28oct24_9R2,CC2_28oct24_01R1,CC4_28oct24_01R1,CC4_28oct24_15R1,CS1_28oct24_01R2,CS1_28oct24_01R1
190,-0.003,0.502,0.463,0.176,0.457,0.424,0.393,0.452,0.179,0.455,0.449,0.441,0.417,0.45,0.186,0.191
191,-0.004,0.464,0.417,0.165,0.415,0.389,0.362,0.413,0.163,0.418,0.413,0.402,0.381,0.408,0.171,0.178
192,-0.005,0.425,0.376,0.157,0.381,0.356,0.333,0.378,0.152,0.385,0.378,0.366,0.35,0.371,0.159,0.166
193,-0.007,0.382,0.333,0.148,0.341,0.322,0.302,0.339,0.139,0.352,0.34,0.328,0.314,0.33,0.147,0.154
194,-0.008,0.352,0.3,0.14,0.311,0.294,0.278,0.309,0.128,0.325,0.31,0.298,0.285,0.298,0.137,0.144
195,-0.008,0.323,0.272,0.133,0.283,0.268,0.256,0.28,0.119,0.3,0.282,0.271,0.26,0.271,0.129,0.136
196,-0.008,0.298,0.25,0.128,0.26,0.246,0.238,0.255,0.112,0.279,0.26,0.249,0.238,0.247,0.121,0.129
197,-0.008,0.276,0.23,0.123,0.24,0.227,0.223,0.234,0.105,0.26,0.239,0.228,0.218,0.227,0.115,0.122
198,-0.008,0.256,0.213,0.118,0.222,0.21,0.208,0.217,0.099,0.244,0.222,0.211,0.201,0.21,0.108,0.116
199,-0.008,0.241,0.199,0.115,0.207,0.197,0.197,0.202,0.095,0.231,0.208,0.195,0.188,0.195,0.104,0.112
200,-0.007,0.228,0.187,0.112,0.195,0.185,0.187,0.189,0.091,0.22,0.196,0.183,0.177,0.183,0.1,0.108
201,-0.007,0.215,0.176,0.109,0.183,0.174,0.177,0.178,0.088,0.21,0.185,0.171,0.166,0.172,0.097,0.103
202,-0.007,0.204,0.166,0.106,0.172,0.165,0.169,0.167,0.084,0.2,0.175,0.161,0.157,0.162,0.093,0.1
203,-0.007,0.196,0.158,0.104,0.164,0.157,0.162,0.159,0.082,0.193,0.167,0.153,0.149,0.154,0.091,0.097
204,-0.006,0.187,0.152,0.102,0.156,0.15,0.156,0.151,0.08,0.186,0.16,0.146,0.143,0.147,0.089,0.094
205,-0.006,0.18,0.145,0.099,0.15,0.143,0.15,0.144,0.078,0.18,0.154,0.14,0.136,0.141,0.086,0.091
206,-0.006,0.174,0.14,0.097,0.144,0.138,0.146,0.139,0.076,0.174,0.148,0.135,0.131,0.136,0.084,0.089
207,-0.006,0.169,0.135,0.095,0.139,0.133,0.142,0.134,0.075,0.169,0.143,0.13,0.127,0.131,0.083,0.088
208,-0.005,0.164,0.131,0.092,0.135,0.129,0.138,0.13,0.073,0.164,0.139,0.126,0.123,0.127,0.081,0.086
209,-0.005,0.16,0.127,0.09,0.131,0.125,0.134,0.126,0.072,0.159,0.135,0.123,0.119,0.123,0.08,0.084
210,-0.005,0.156,0.124,0.088,0.127,0.122,0.131,0.123,0.07,0.154,0.131,0.119,0.116,0.12,0.078,0.083
211,-0.005,0.152,0.12,0.086,0.123,0.118,0.127,0.119,0.069,0.149,0.127,0.116,0.113,0.117,0.077,0.081
212,-0.004,0.149,0.117,0.083,0.12,0.115,0.124,0.116,0.068,0.144,0.123,0.113,0.11,0.114,0.076,0.08
213,-0.004,0.146,0.114,0.08,0.117,0.112,0.121,0.113,0.066,0.14,0.119,0.11,0.107,0.111,0.074,0.079
214,-0.004,0.142,0.111,0.078,0.114,0.109,0.119,0.11,0.066,0.135,0.116,0.108,0.104,0.108,0.073,0.078
215,-0.003,0.14,0.109,0.075,0.111,0.107,0.116,0.108,0.064,0.13,0.113,0.105,0.102,0.106,0.072,0.077
216,-0.003,0.137,0.107,0.073,0.109,0.104,0.113,0.105,0.063,0.126,0.109,0.103,0.099,0.103,0.071,0.075
217,-0.003,0.134,0.104,0.07,0.106,0.102,0.111,0.103,0.062,0.121,0.106,0.101,0.097,0.101,0.07,0.074
218,-0.003,0.132,0.102,0.068,0.104,0.1,0.109,0.101,0.061,0.117,0.104,0.099,0.095,0.099,0.069,0.073
219,-0.003,0.129,0.1,0.065,0.102,0.098,0.107,0.099,0.06,0.113,0.101,0.097,0.093,0.097,0.068,0.072
220,-0.002,0.127,0.098,0.063,0.1,0.096,0.105,0.097,0.059,0.109,0.098,0.095,0.091,0.095,0.067,0.071
221,-0.002,0.125,0.096,0.061,0.098,0.094,0.103,0.095,0.058,0.105,0.096,0.093,0.089,0.093,0.066,0.07
222,-0.002,0.123,0.094,0.059,0.096,0.092,0.101,0.094,0.057,0.102,0.093,0.092,0.087,0.091,0.065,0.069
223,-0.002,0.121,0.093,0.057,0.095,0.091,0.099,0.092,0.056,0.099,0.091,0.09,0.086,0.09,0.065,0.068
224,-0.002,0.119,0.091,0.055,0.093,0.089,0.097,0.09,0.055,0.096,0.089,0.088,0.084,0.088,0.064,0.068
225,-0.001,0.117,0.09,0.054,0.091,0.088,0.096,0.089,0.054,0.093,0.087,0.087,0.082,0.086,0.063,0.067
226,-0.001,0.115,0.088,0.052,0.09,0.086,0.094,0.087,0.053,0.09,0.085,0.086,0.081,0.085,0.062,0.066
227,-0.001,0.114,0.086,0.051,0.088,0.085,0.093,0.086,0.053,0.088,0.083,0.084,0.079,0.084,0.062,0.065
228,-0.001,0.112,0.085,0.05,0.087,0.083,0.091,0.084,0.052,0.085,0.082,0.083,0.078,0.082,0.061,0.064
229,-0.001,0.11,0.084,0.048,0.085,0.082,0.09,0.083,0.051,0.083,0.08,0.081,0.077,0.081,0.06,0.063
230,-0.001,0.108,0.082,0.047,0.084,0.08,0.088,0.081,0.05,0.081,0.078,0.08,0.075,0.079,0.059,0.062
231,-0.001,0.107,0.081,0.046,0.082,0.079,0.087,0.08,0.049,0.079,0.077,0.078,0.074,0.078,0.058,0.061
232,-0.001,0.105,0.079,0.045,0.081,0.078,0.085,0.078,0.049,0.077,0.075,0.077,0.072,0.077,0.057,0.06
233,0,0.104,0.078,0.044,0.08,0.077,0.084,0.077,0.048,0.076,0.074,0.076,0.071,0.076,0.057,0.06
234,0,0.102,0.077,0.043,0.078,0.075,0.083,0.076,0.047,0.074,0.073,0.075,0.07,0.074,0.056,0.059
235,0,0.1,0.076,0.043,0.077,0.074,0.082,0.075,0.047,0.073,0.071,0.074,0.069,0.073,0.055,0.058
236,0,0.099,0.075,0.042,0.076,0.073,0.08,0.074,0.046,0.072,0.07,0.073,0.068,0.072,0.054,0.057
237,0,0.097,0.073,0.041,0.074,0.072,0.079,0.072,0.045,0.07,0.069,0.071,0.067,0.071,0.053,0.056
238,0,0.096,0.073,0.041,0.073,0.071,0.078,0.071,0.045,0.069,0.068,0.071,0.066,0.07,0.053,0.055
239,0,0.095,0.072,0.04,0.073,0.07,0.077,0.07,0.044,0.068,0.067,0.07,0.065,0.069,0.052,0.054
240,0,0.093,0.071,0.04,0.072,0.069,0.076,0.069,0.044,0.067,0.066,0.069,0.064,0.068,0.051,0.054
241,0,0.092,0.07,0.039,0.07,0.068,0.075,0.068,0.043,0.066,0.065,0.068,0.063,0.067,0.051,0.053
242,0,0.091,0.069,0.038,0.07,0.067,0.074,0.067,0.043,0.065,0.064,0.067,0.062,0.066,0.05,0.052
243,0,0.09,0.068,0.038,0.069,0.066,0.073,0.067,0.042,0.065,0.064,0.066,0.062,0.066,0.049,0.051
244,0,0.089,0.067,0.038,0.068,0.066,0.072,0.066,0.042,0.064,0.063,0.065,0.061,0.065,0.049,0.051
245,0,0.088,0.067,0.037,0.067,0.065,0.071,0.065,0.041,0.063,0.062,0.065,0.06,0.064,0.048,0.05
246,0,0.087,0.066,0.037,0.066,0.064,0.071,0.065,0.041,0.063,0.062,0.064,0.06,0.064,0.048,0.05
247,0,0.086,0.065,0.037,0.066,0.063,0.07,0.064,0.04,0.062,0.061,0.063,0.059,0.063,0.047,0.049
248,0,0.085,0.065,0.036,0.065,0.063,0.069,0.063,0.04,0.061,0.06,0.063,0.059,0.062,0.047,0.048
249,0.001,0.085,0.064,0.036,0.064,0.062,0.069,0.063,0.04,0.061,0.06,0.062,0.058,0.062,0.046,0.048
250,0,0.084,0.063,0.036,0.064,0.062,0.068,0.062,0.039,0.06,0.059,0.062,0.058,0.061,0.046,0.047
251,0.001,0.083,0.063,0.035,0.063,0.061,0.067,0.062,0.039,0.06,0.059,0.061,0.057,0.061,0.045,0.047
252,0.001,0.082,0.063,0.035,0.063,0.061,0.067,0.061,0.039,0.059,0.058,0.061,0.057,0.06,0.045,0.046
253,0,0.082,0.062,0.035,0.062,0.06,0.066,0.06,0.038,0.059,0.058,0.06,0.056,0.06,0.044,0.046
254,0,0.081,0.061,0.034,0.061,0.059,0.065,0.06,0.038,0.058,0.057,0.06,0.056,0.059,0.044,0.046
255,0,0.08,0.061,0.034,0.061,0.059,0.065,0.059,0.037,0.058,0.056,0.059,0.055,0.059,0.043,0.045
256,0,0.08,0.06,0.034,0.061,0.058,0.064,0.059,0.037,0.057,0.056,0.059,0.055,0.058,0.043,0.045
257,0,0.079,0.06,0.034,0.06,0.058,0.064,0.059,0.037,0.057,0.056,0.058,0.055,0.058,0.043,0.045
258,0,0.079,0.059,0.034,0.06,0.057,0.063,0.058,0.036,0.057,0.055,0.058,0.054,0.057,0.042,0.044
259,0.001,0.078,0.059,0.033,0.059,0.057,0.063,0.057,0.036,0.056,0.055,0.057,0.054,0.057,0.042,0.044
260,0.001,0.077,0.058,0.033,0.058,0.056,0.062,0.057,0.036,0.056,0.054,0.057,0.053,0.056,0.042,0.043
261,0.001,0.077,0.058,0.033,0.058,0.056,0.061,0.056,0.036,0.055,0.054,0.056,0.053,0.056,0.041,0.043
262,0.001,0.076,0.057,0.032,0.057,0.055,0.061,0.056,0.035,0.055,0.053,0.056,0.052,0.055,0.041,0.043
263,0,0.075,0.057,0.032,0.056,0.055,0.06,0.055,0.035,0.054,0.052,0.055,0.051,0.055,0.041,0.042
264,0.001,0.074,0.056,0.032,0.056,0.054,0.06,0.054,0.034,0.053,0.052,0.054,0.051,0.054,0.04,0.042
265,0.001,0.073,0.056,0.032,0.055,0.054,0.059,0.054,0.034,0.053,0.051,0.054,0.05,0.053,0.04,0.042
266,0,0.072,0.055,0.031,0.055,0.053,0.058,0.053,0.034,0.052,0.051,0.053,0.05,0.053,0.039,0.041
267,0,0.071,0.054,0.031,0.054,0.052,0.057,0.052,0.034,0.051,0.05,0.052,0.049,0.052,0.039,0.041
268,0,0.071,0.053,0.031,0.053,0.051,0.057,0.051,0.033,0.051,0.049,0.051,0.048,0.051,0.039,0.04
269,0,0.07,0.053,0.03,0.053,0.051,0.056,0.051,0.033,0.05,0.049,0.051,0.047,0.05,0.038,0.04
270,0,0.069,0.052,0.03,0.052,0.05,0.055,0.05,0.032,0.05,0.048,0.05,0.047,0.05,0.038,0.039
271,0,0.068,0.051,0.03,0.051,0.049,0.054,0.049,0.032,0.049,0.047,0.05,0.046,0.049,0.038,0.039
272,0,0.067,0.051,0.029,0.05,0.049,0.054,0.049,0.032,0.048,0.047,0.049,0.045,0.048,0.037,0.039
273,0,0.066,0.05,0.029,0.05,0.048,0.053,0.048,0.031,0.048,0.046,0.048,0.045,0.048,0.037,0.038
274,0,0.065,0.049,0.029,0.049,0.047,0.052,0.047,0.031,0.047,0.045,0.047,0.044,0.047,0.037,0.038
275,0.001,0.064,0.048,0.028,0.048,0.047,0.051,0.046,0.031,0.046,0.044,0.047,0.043,0.046,0.037,0.038
276,0,0.063,0.047,0.028,0.047,0.046,0.051,0.045,0.03,0.046,0.044,0.046,0.042,0.045,0.036,0.037
277,0.001,0.062,0.047,0.028,0.047,0.045,0.05,0.045,0.03,0.045,0.043,0.045,0.042,0.045,0.036,0.037
278,0,0.061,0.046,0.028,0.046,0.044,0.049,0.044,0.03,0.044,0.042,0.044,0.041,0.044,0.035,0.036
279,0,0.061,0.046,0.027,0.045,0.043,0.048,0.043,0.03,0.043,0.041,0.043,0.04,0.043,0.035,0.036
280,0,0.059,0.044,0.027,0.044,0.042,0.047,0.042,0.029,0.043,0.041,0.042,0.039,0.042,0.034,0.036
281,0,0.058,0.044,0.027,0.043,0.041,0.047,0.041,0.029,0.042,0.04,0.042,0.039,0.041,0.034,0.035
282,0,0.057,0.043,0.026,0.043,0.041,0.046,0.041,0.028,0.041,0.039,0.041,0.038,0.04,0.033,0.035
283,0,0.056,0.042,0.026,0.042,0.04,0.045,0.04,0.028,0.041,0.038,0.04,0.037,0.04,0.033,0.034
284,0,0.055,0.041,0.025,0.041,0.039,0.044,0.039,0.028,0.04,0.037,0.039,0.036,0.039,0.033,0.034
285,0,0.054,0.04,0.025,0.04,0.038,0.043,0.038,0.027,0.039,0.037,0.038,0.035,0.038,0.032,0.033
286,0,0.053,0.04,0.025,0.039,0.038,0.043,0.037,0.027,0.038,0.036,0.037,0.035,0.037,0.032,0.033
287,0,0.052,0.039,0.024,0.038,0.037,0.042,0.036,0.027,0.038,0.035,0.037,0.034,0.036,0.032,0.033
288,0,0.051,0.038,0.024,0.038,0.036,0.041,0.036,0.026,0.037,0.034,0.036,0.033,0.036,0.031,0.032
289,0,0.05,0.037,0.024,0.037,0.035,0.04,0.035,0.026,0.036,0.034,0.035,0.032,0.035,0.03,0.032
290,0,0.05,0.037,0.024,0.036,0.034,0.039,0.034,0.025,0.036,0.033,0.034,0.032,0.034,0.03,0.031
291,0,0.048,0.036,0.023,0.035,0.033,0.038,0.033,0.025,0.035,0.032,0.033,0.031,0.033,0.03,0.031
292,0,0.048,0.035,0.023,0.035,0.033,0.038,0.032,0.025,0.034,0.031,0.033,0.03,0.033,0.029,0.03
293,0,0.047,0.034,0.022,0.033,0.032,0.037,0.031,0.024,0.034,0.031,0.032,0.029,0.032,0.029,0.03
294,0,0.046,0.034,0.022,0.033,0.031,0.036,0.031,0.024,0.033,0.03,0.031,0.029,0.031,0.029,0.029
295,0,0.045,0.033,0.022,0.032,0.031,0.036,0.03,0.024,0.032,0.029,0.031,0.028,0.031,0.028,0.029
296,0,0.044,0.033,0.021,0.032,0.03,0.035,0.03,0.024,0.032,0.029,0.03,0.027,0.03,0.028,0.029
297,0,0.043,0.032,0.021,0.031,0.029,0.035,0.029,0.023,0.031,0.028,0.029,0.027,0.029,0.027,0.028
298,0.001,0.043,0.032,0.021,0.031,0.029,0.034,0.029,0.023,0.031,0.028,0.029,0.026,0.029,0.027,0.028
299,0,0.042,0.031,0.021,0.03,0.028,0.033,0.028,0.023,0.03,0.027,0.028,0.026,0.028,0.027,0.028
300,0,0.041,0.03,0.02,0.029,0.027,0.032,0.027,0.022,0.029,0.027,0.028,0.025,0.027,0.026,0.027
301,0,0.041,0.03,0.02,0.028,0.027,0.032,0.027,0.022,0.029,0.026,0.027,0.025,0.027,0.026,0.027
302,0,0.04,0.029,0.02,0.028,0.027,0.031,0.026,0.022,0.028,0.025,0.027,0.024,0.026,0.026,0.027
303,0,0.039,0.029,0.019,0.027,0.026,0.031,0.025,0.022,0.028,0.025,0.026,0.024,0.026,0.025,0.026
304,0,0.038,0.028,0.019,0.027,0.025,0.03,0.025,0.021,0.028,0.024,0.025,0.023,0.025,0.025,0.026
305,0,0.038,0.028,0.019,0.026,0.025,0.03,0.024,0.021,0.027,0.024,0.025,0.023,0.025,0.025,0.026
306,0,0.037,0.027,0.019,0.026,0.024,0.029,0.024,0.021,0.027,0.024,0.025,0.022,0.024,0.025,0.026
307,0,0.037,0.027,0.019,0.026,0.024,0.029,0.024,0.021,0.026,0.023,0.024,0.022,0.024,0.024,0.025
308,0.001,0.036,0.026,0.018,0.025,0.023,0.029,0.023,0.02,0.026,0.023,0.023,0.021,0.024,0.024,0.025
309,0.001,0.036,0.026,0.018,0.025,0.023,0.028,0.023,0.02,0.025,0.022,0.023,0.021,0.023,0.023,0.025
310,0,0.035,0.025,0.018,0.024,0.023,0.027,0.022,0.02,0.025,0.022,0.022,0.021,0.023,0.023,0.024
311,0.001,0.034,0.025,0.017,0.023,0.022,0.027,0.022,0.02,0.024,0.021,0.022,0.02,0.022,0.023,0.024
312,0,0.034,0.025,0.017,0.023,0.022,0.026,0.021,0.019,0.024,0.021,0.022,0.02,0.022,0.023,0.023
313,0.001,0.033,0.025,0.017,0.023,0.021,0.026,0.021,0.019,0.024,0.021,0.022,0.02,0.022,0.023,0.023
314,0,0.033,0.024,0.017,0.022,0.021,0.026,0.021,0.019,0.023,0.02,0.021,0.019,0.021,0.022,0.023
315,0,0.032,0.023,0.016,0.021,0.021,0.025,0.02,0.018,0.023,0.02,0.021,0.018,0.021,0.022,0.022
316,0,0.032,0.023,0.016,0.021,0.02,0.025,0.02,0.018,0.023,0.019,0.02,0.018,0.02,0.021,0.022
317,0.001,0.032,0.023,0.016,0.021,0.02,0.025,0.019,0.018,0.022,0.019,0.02,0.018,0.02,0.021,0.022
318,0,0.031,0.023,0.016,0.021,0.02,0.024,0.019,0.018,0.022,0.019,0.019,0.018,0.02,0.021,0.022
319,0,0.031,0.022,0.016,0.02,0.019,0.024,0.019,0.018,0.022,0.018,0.019,0.017,0.019,0.021,0.022
320,0,0.03,0.022,0.015,0.02,0.019,0.023,0.019,0.018,0.021,0.018,0.019,0.017,0.019,0.02,0.021
321,0.001,0.03,0.022,0.015,0.02,0.019,0.023,0.018,0.017,0.021,0.018,0.019,0.017,0.019,0.02,0.021
322,0.001,0.029,0.021,0.015,0.019,0.018,0.023,0.018,0.017,0.021,0.017,0.018,0.016,0.018,0.02,0.021
323,0,0.029,0.021,0.015,0.019,0.018,0.022,0.017,0.017,0.02,0.017,0.018,0.016,0.018,0.019,0.02
324,0.001,0.028,0.021,0.015,0.019,0.017,0.022,0.017,0.017,0.02,0.017,0.018,0.016,0.018,0.019,0.02
325,0,0.028,0.02,0.015,0.018,0.017,0.022,0.017,0.016,0.02,0.016,0.017,0.015,0.017,0.019,0.02
326,0,0.028,0.02,0.014,0.018,0.017,0.021,0.017,0.016,0.02,0.016,0.017,0.015,0.017,0.019,0.02
327,0,0.027,0.02,0.014,0.018,0.016,0.021,0.016,0.016,0.019,0.016,0.017,0.015,0.017,0.018,0.019
328,0,0.026,0.019,0.014,0.017,0.016,0.02,0.015,0.016,0.019,0.015,0.016,0.014,0.016,0.018,0.019
329,0,0.026,0.019,0.014,0.017,0.016,0.02,0.015,0.015,0.019,0.015,0.016,0.014,0.016,0.018,0.019
330,0,0.026,0.019,0.013,0.017,0.016,0.02,0.015,0.015,0.018,0.015,0.016,0.014,0.016,0.018,0.018
331,0,0.025,0.019,0.013,0.016,0.015,0.019,0.015,0.015,0.018,0.015,0.015,0.014,0.016,0.018,0.018
332,0,0.025,0.018,0.013,0.016,0.015,0.019,0.015,0.015,0.018,0.014,0.015,0.013,0.015,0.017,0.018
333,0,0.025,0.018,0.013,0.016,0.015,0.019,0.014,0.015,0.018,0.014,0.015,0.013,0.015,0.017,0.018
334,0,0.024,0.018,0.013,0.016,0.015,0.019,0.014,0.015,0.018,0.014,0.015,0.013,0.015,0.017,0.018
335,0,0.024,0.018,0.013,0.015,0.014,0.018,0.014,0.014,0.017,0.014,0.014,0.013,0.015,0.016,0.017
336,0,0.024,0.017,0.013,0.015,0.014,0.018,0.014,0.014,0.017,0.013,0.014,0.013,0.015,0.016,0.017
337,0,0.023,0.017,0.012,0.015,0.014,0.018,0.013,0.014,0.017,0.013,0.014,0.012,0.014,0.016,0.016
338,0,0.023,0.017,0.012,0.015,0.014,0.017,0.013,0.014,0.017,0.013,0.013,0.012,0.014,0.016,0.016
339,0.001,0.023,0.017,0.012,0.015,0.014,0.018,0.013,0.014,0.017,0.013,0.014,0.012,0.014,0.016,0.016
340,0.002,0.024,0.018,0.014,0.016,0.015,0.018,0.014,0.015,0.018,0.014,0.015,0.013,0.015,0.017,0.018
341,0.001,0.022,0.016,0.012,0.014,0.013,0.017,0.012,0.013,0.016,0.012,0.013,0.012,0.014,0.015,0.016
342,0.001,0.021,0.016,0.012,0.014,0.013,0.016,0.012,0.013,0.016,0.012,0.013,0.011,0.013,0.015,0.016
343,0,0.021,0.015,0.011,0.013,0.012,0.016,0.012,0.012,0.015,0.012,0.012,0.011,0.013,0.014,0.015
344,0,0.021,0.015,0.011,0.013,0.012,0.016,0.011,0.012,0.015,0.011,0.012,0.01,0.012,0.014,0.015
345,0,0.021,0.015,0.011,0.013,0.012,0.016,0.012,0.013,0.015,0.011,0.012,0.011,0.012,0.014,0.015
346,0,0.02,0.015,0.011,0.013,0.012,0.015,0.011,0.012,0.015,0.011,0.012,0.01,0.012,0.014,0.015
347,0,0.02,0.015,0.011,0.012,0.011,0.015,0.011,0.012,0.015,0.011,0.012,0.01,0.012,0.014,0.014
348,0,0.02,0.015,0.011,0.012,0.011,0.015,0.011,0.012,0.015,0.011,0.011,0.01,0.012,0.014,0.014
349,0,0.019,0.014,0.011,0.012,0.011,0.014,0.011,0.012,0.014,0.011,0.011,0.009,0.012,0.013,0.014
350,0,0.019,0.015,0.011,0.012,0.011,0.014,0.01,0.012,0.014,0.011,0.011,0.01,0.012,0.013,0.014
351,0,0.019,0.014,0.01,0.012,0.011,0.014,0.01,0.011,0.014,0.01,0.011,0.009,0.011,0.013,0.013
352,0,0.018,0.014,0.01,0.011,0.01,0.014,0.01,0.011,0.014,0.01,0.01,0.009,0.011,0.013,0.013
353,0,0.018,0.014,0.01,0.011,0.011,0.014,0.01,0.011,0.014,0.01,0.01,0.009,0.011,0.013,0.013
354,0,0.018,0.014,0.01,0.011,0.01,0.013,0.009,0.011,0.013,0.009,0.01,0.008,0.01,0.012,0.013
355,0,0.018,0.013,0.01,0.011,0.01,0.013,0.01,0.011,0.013,0.009,0.01,0.008,0.01,0.012,0.012
356,0,0.017,0.013,0.009,0.01,0.01,0.013,0.009,0.011,0.013,0.009,0.01,0.008,0.01,0.012,0.012
357,0,0.017,0.013,0.01,0.01,0.01,0.013,0.009,0.01,0.013,0.009,0.01,0.008,0.01,0.012,0.012
358,0,0.017,0.013,0.01,0.01,0.01,0.013,0.009,0.011,0.013,0.009,0.01,0.008,0.01,0.011,0.012
359,0,0.017,0.013,0.01,0.01,0.009,0.012,0.009,0.01,0.012,0.009,0.009,0.008,0.01,0.011,0.012
360,0,0.016,0.012,0.009,0.01,0.009,0.012,0.009,0.01,0.012,0.009,0.009,0.008,0.01,0.011,0.012
361,0,0.016,0.012,0.009,0.009,0.009,0.012,0.009,0.01,0.012,0.008,0.009,0.007,0.009,0.011,0.011
362,0,0.016,0.012,0.009,0.01,0.009,0.012,0.008,0.01,0.012,0.008,0.009,0.007,0.009,0.011,0.011
363,0,0.016,0.012,0.009,0.009,0.009,0.012,0.008,0.01,0.012,0.008,0.009,0.007,0.009,0.011,0.011
364,0,0.015,0.012,0.009,0.009,0.008,0.011,0.008,0.009,0.012,0.008,0.008,0.007,0.009,0.01,0.011
365,0,0.015,0.012,0.009,0.009,0.008,0.011,0.008,0.009,0.011,0.008,0.008,0.007,0.008,0.01,0.01
366,0,0.015,0.012,0.008,0.009,0.008,0.011,0.008,0.009,0.012,0.007,0.008,0.007,0.008,0.01,0.011
367,0,0.015,0.012,0.008,0.009,0.008,0.011,0.007,0.009,0.011,0.008,0.008,0.007,0.008,0.01,0.011
368,0,0.014,0.011,0.008,0.009,0.008,0.011,0.007,0.009,0.011,0.007,0.008,0.006,0.008,0.01,0.01
369,0,0.014,0.011,0.008,0.008,0.007,0.01,0.007,0.009,0.011,0.007,0.008,0.006,0.008,0.009,0.01
370,0,0.014,0.011,0.008,0.008,0.008,0.01,0.007,0.009,0.011,0.007,0.007,0.006,0.008,0.009,0.01
371,0,0.014,0.011,0.008,0.008,0.008,0.01,0.007,0.009,0.011,0.007,0.008,0.006,0.008,0.009,0.01
372,0,0.014,0.011,0.008,0.008,0.007,0.01,0.007,0.008,0.011,0.007,0.007,0.006,0.008,0.009,0.01
373,0,0.013,0.011,0.008,0.008,0.007,0.01,0.007,0.008,0.011,0.007,0.007,0.006,0.008,0.009,0.009
374,0,0.013,0.011,0.008,0.008,0.007,0.01,0.006,0.008,0.01,0.006,0.007,0.006,0.007,0.008,0.009
375,0,0.013,0.01,0.008,0.008,0.007,0.01,0.007,0.008,0.01,0.006,0.007,0.006,0.007,0.009,0.009
376,0,0.013,0.01,0.008,0.007,0.007,0.009,0.006,0.008,0.01,0.006,0.007,0.006,0.007,0.009,0.009
377,0,0.012,0.01,0.007,0.007,0.007,0.009,0.006,0.008,0.01,0.006,0.007,0.005,0.007,0.008,0.009
378,0,0.012,0.01,0.007,0.007,0.007,0.009,0.006,0.008,0.01,0.006,0.007,0.005,0.007,0.008,0.009
379,0,0.012,0.01,0.007,0.007,0.006,0.009,0.006,0.008,0.01,0.006,0.007,0.005,0.007,0.008,0.009
380,0,0.012,0.01,0.007,0.007,0.006,0.009,0.006,0.007,0.01,0.006,0.006,0.005,0.007,0.008,0.009
381,0,0.012,0.01,0.007,0.007,0.006,0.009,0.006,0.007,0.009,0.006,0.006,0.005,0.007,0.008,0.008
382,0,0.012,0.01,0.007,0.007,0.006,0.008,0.006,0.007,0.009,0.006,0.006,0.005,0.006,0.008,0.008
383,0,0.011,0.009,0.007,0.007,0.006,0.008,0.005,0.007,0.009,0.005,0.006,0.005,0.006,0.008,0.008
384,0,0.011,0.009,0.007,0.007,0.006,0.008,0.005,0.007,0.009,0.005,0.006,0.005,0.006,0.007,0.008
385,0,0.011,0.009,0.007,0.006,0.006,0.008,0.005,0.007,0.009,0.005,0.006,0.005,0.006,0.007,0.008
386,0,0.011,0.009,0.007,0.006,0.006,0.008,0.005,0.007,0.009,0.005,0.006,0.005,0.006,0.007,0.008
387,0,0.011,0.009,0.007,0.006,0.006,0.008,0.005,0.007,0.009,0.005,0.006,0.004,0.006,0.007,0.008
388,0,0.011,0.009,0.007,0.006,0.006,0.008,0.005,0.007,0.009,0.005,0.006,0.004,0.006,0.007,0.008
389,0,0.01,0.009,0.006,0.006,0.005,0.008,0.005,0.007,0.009,0.005,0.005,0.004,0.006,0.007,0.007
390,0,0.01,0.009,0.006,0.006,0.005,0.007,0.005,0.007,0.008,0.005,0.005,0.004,0.006,0.007,0.007
391,0,0.01,0.009,0.006,0.006,0.005,0.007,0.004,0.007,0.008,0.005,0.005,0.004,0.005,0.007,0.007
392,0,0.01,0.009,0.006,0.006,0.005,0.007,0.004,0.006,0.008,0.004,0.005,0.004,0.005,0.006,0.007
393,0,0.01,0.008,0.006,0.006,0.005,0.007,0.004,0.006,0.008,0.004,0.005,0.004,0.005,0.006,0.007
394,0,0.01,0.008,0.006,0.005,0.005,0.007,0.004,0.006,0.008,0.004,0.005,0.004,0.005,0.006,0.007
395,0,0.009,0.008,0.006,0.005,0.005,0.007,0.004,0.006,0.008,0.004,0.005,0.004,0.005,0.006,0.007
396,0,0.009,0.008,0.006,0.005,0.005,0.007,0.004,0.006,0.008,0.004,0.005,0.003,0.005,0.006,0.007
397,0,0.009,0.008,0.006,0.005,0.005,0.006,0.004,0.006,0.008,0.004,0.005,0.003,0.005,0.006,0.006
398,0,0.009,0.008,0.006,0.005,0.004,0.006,0.004,0.006,0.008,0.004,0.004,0.003,0.005,0.006,0.006
399,0,0.009,0.008,0.006,0.005,0.004,0.006,0.004,0.006,0.008,0.004,0.004,0.003,0.005,0.006,0.006
400,0,0.009,0.008,0.006,0.005,0.004,0.006,0.004,0.006,0.008,0.004,0.004,0.003,0.005,0.006,0.006
401,0,0.009,0.008,0.006,0.005,0.004,0.006,0.004,0.006,0.008,0.004,0.004,0.003,0.005,0.006,0.006
402,0,0.009,0.008,0.006,0.005,0.004,0.006,0.004,0.006,0.008,0.004,0.004,0.003,0.005,0.006,0.006
403,0,0.008,0.008,0.005,0.005,0.004,0.006,0.003,0.006,0.007,0.004,0.004,0.003,0.004,0.005,0.006
404,0,0.008,0.007,0.005,0.005,0.004,0.006,0.003,0.005,0.007,0.004,0.004,0.003,0.004,0.005,0.006
405,0,0.008,0.007,0.005,0.005,0.004,0.006,0.003,0.005,0.007,0.003,0.004,0.003,0.004,0.005,0.006
406,0,0.008,0.007,0.005,0.005,0.004,0.006,0.003,0.005,0.007,0.003,0.004,0.003,0.004,0.005,0.005
407,0,0.008,0.007,0.005,0.004,0.004,0.005,0.003,0.005,0.007,0.003,0.004,0.003,0.004,0.005,0.005
408,0,0.008,0.007,0.005,0.004,0.004,0.006,0.003,0.005,0.007,0.003,0.004,0.003,0.004,0.005,0.005
409,0,0.008,0.007,0.005,0.004,0.004,0.005,0.003,0.005,0.007,0.003,0.004,0.003,0.004,0.005,0.005
410,0,0.008,0.007,0.005,0.004,0.004,0.005,0.003,0.005,0.007,0.003,0.004,0.003,0.004,0.005,0.005
411,0,0.007,0.007,0.005,0.004,0.004,0.005,0.003,0.005,0.007,0.003,0.004,0.003,0.004,0.005,0.005
412,0,0.007,0.007,0.005,0.004,0.003,0.005,0.003,0.005,0.007,0.003,0.004,0.003,0.004,0.005,0.005
413,0,0.007,0.007,0.005,0.004,0.004,0.005,0.003,0.005,0.007,0.003,0.004,0.003,0.004,0.005,0.005
414,0,0.007,0.007,0.005,0.004,0.003,0.005,0.003,0.005,0.007,0.003,0.003,0.003,0.004,0.005,0.005
415,0,0.007,0.007,0.005,0.004,0.003,0.005,0.003,0.005,0.007,0.003,0.003,0.002,0.004,0.005,0.005
416,0,0.007,0.007,0.005,0.004,0.003,0.005,0.003,0.005,0.007,0.003,0.003,0.003,0.004,0.004,0.005
417,0,0.007,0.007,0.005,0.004,0.003,0.005,0.003,0.005,0.006,0.003,0.003,0.002,0.004,0.004,0.005
418,0,0.007,0.007,0.005,0.004,0.003,0.005,0.003,0.005,0.006,0.003,0.003,0.002,0.003,0.004,0.005
419,0,0.007,0.007,0.005,0.004,0.003,0.005,0.002,0.005,0.006,0.003,0.003,0.002,0.003,0.004,0.005
420,0,0.007,0.007,0.005,0.004,0.003,0.005,0.002,0.005,0.006,0.002,0.003,0.002,0.003,0.004,0.004
421,0,0.006,0.006,0.005,0.004,0.003,0.005,0.002,0.005,0.006,0.002,0.003,0.002,0.003,0.004,0.004
422,0,0.006,0.006,0.005,0.003,0.003,0.004,0.002,0.005,0.006,0.002,0.003,0.002,0.003,0.004,0.005
423,0,0.006,0.006,0.005,0.004,0.003,0.005,0.003,0.005,0.006,0.002,0.003,0.002,0.003,0.004,0.005
424,0,0.006,0.006,0.005,0.003,0.003,0.004,0.002,0.005,0.006,0.002,0.003,0.002,0.003,0.004,0.004
425,0,0.006,0.006,0.005,0.003,0.003,0.004,0.002,0.004,0.006,0.002,0.003,0.002,0.003,0.004,0.004
426,0,0.006,0.006,0.005,0.003,0.003,0.004,0.002,0.004,0.006,0.002,0.003,0.002,0.003,0.004,0.004
427,0,0.006,0.006,0.005,0.003,0.003,0.004,0.002,0.004,0.006,0.002,0.003,0.002,0.003,0.004,0.004
428,0,0.006,0.006,0.005,0.003,0.003,0.004,0.002,0.004,0.006,0.002,0.003,0.002,0.003,0.004,0.004
429,0,0.006,0.006,0.004,0.003,0.002,0.004,0.002,0.004,0.006,0.002,0.003,0.002,0.003,0.004,0.004
430,0,0.006,0.006,0.004,0.003,0.002,0.004,0.002,0.004,0.006,0.002,0.002,0.002,0.003,0.003,0.004
431,0,0.005,0.006,0.004,0.003,0.002,0.004,0.002,0.004,0.006,0.002,0.002,0.002,0.003,0.003,0.004
432,0,0.005,0.006,0.004,0.003,0.002,0.004,0.002,0.004,0.006,0.002,0.002,0.002,0.003,0.003,0.004
433,0,0.005,0.006,0.004,0.003,0.002,0.004,0.002,0.004,0.006,0.002,0.002,0.001,0.003,0.003,0.004
434,0,0.005,0.006,0.004,0.003,0.002,0.004,0.002,0.004,0.006,0.002,0.002,0.001,0.003,0.003,0.004
435,0,0.005,0.006,0.004,0.003,0.002,0.003,0.002,0.004,0.005,0.002,0.002,0.001,0.002,0.003,0.003
436,0,0.005,0.006,0.004,0.003,0.002,0.003,0.001,0.004,0.005,0.002,0.002,0.001,0.002,0.003,0.003
437,0,0.005,0.006,0.004,0.003,0.002,0.003,0.002,0.004,0.005,0.002,0.002,0.001,0.002,0.003,0.003
438,0,0.005,0.006,0.004,0.003,0.002,0.003,0.001,0.004,0.005,0.002,0.002,0.001,0.002,0.003,0.003
439,0,0.005,0.006,0.004,0.002,0.002,0.003,0.001,0.004,0.005,0.002,0.002,0.001,0.002,0.003,0.003
440,0,0.005,0.006,0.004,0.003,0.002,0.003,0.001,0.004,0.005,0.002,0.002,0.001,0.002,0.003,0.003
441,0,0.005,0.005,0.004,0.003,0.002,0.003,0.001,0.004,0.005,0.002,0.002,0.001,0.002,0.003,0.003
442,0,0.005,0.005,0.004,0.002,0.002,0.003,0.001,0.004,0.005,0.001,0.002,0.001,0.002,0.003,0.003
443,0,0.005,0.005,0.004,0.002,0.002,0.003,0.001,0.004,0.005,0.002,0.002,0.001,0.002,0.003,0.003
444,0,0.004,0.005,0.004,0.002,0.002,0.003,0.001,0.004,0.005,0.001,0.002,0.001,0.002,0.003,0.003
445,0,0.004,0.005,0.004,0.002,0.002,0.003,0.001,0.004,0.005,0.001,0.002,0.001,0.002,0.003,0.003
446,0,0.004,0.005,0.004,0.002,0.002,0.003,0.001,0.004,0.005,0.001,0.002,0.001,0.002,0.003,0.003
447,0,0.004,0.005,0.004,0.002,0.002,0.003,0.001,0.004,0.005,0.001,0.002,0.001,0.002,0.003,0.003
448,0,0.004,0.005,0.004,0.002,0.002,0.003,0.001,0.004,0.005,0.001,0.002,0.001,0.002,0.003,0.003
449,0,0.004,0.005,0.004,0.002,0.002,0.003,0.001,0.004,0.005,0.001,0.002,0.001,0.002,0.002,0.003
450,0,0.004,0.005,0.004,0.002,0.002,0.003,0.001,0.003,0.005,0.001,0.002,0.001,0.002,0.002,0.003
451,0,0.004,0.005,0.004,0.002,0.002,0.003,0.001,0.003,0.005,0.001,0.002,0.001,0.002,0.002,0.003
452,0,0.004,0.005,0.003,0.002,0.001,0.003,0.001,0.003,0.005,0.001,0.001,0.001,0.002,0.002,0.003
453,0,0.004,0.005,0.003,0.002,0.002,0.003,0.001,0.003,0.005,0.001,0.001,0.001,0.002,0.002,0.003
454,0,0.004,0.005,0.004,0.002,0.002,0.003,0.001,0.003,0.005,0.001,0.002,0.001,0.002,0.002,0.003
455,0,0.004,0.005,0.004,0.002,0.002,0.003,0.001,0.003,0.005,0.001,0.002,0.001,0.002,0.002,0.003
456,0,0.004,0.005,0.003,0.002,0.001,0.003,0.001,0.003,0.005,0.001,0.002,0.001,0.002,0.002,0.003
457,0,0.004,0.005,0.003,0.002,0.001,0.002,0.001,0.003,0.005,0.001,0.001,0.001,0.002,0.002,0.003
458,0,0.004,0.005,0.003,0.002,0.001,0.002,0.001,0.003,0.004,0.001,0.001,0.001,0.002,0.002,0.003
459,0,0.004,0.005,0.003,0.002,0.001,0.002,0.001,0.003,0.004,0.001,0.001,0.001,0.002,0.002,0.002
460,0,0.004,0.005,0.003,0.002,0.001,0.002,0.001,0.003,0.004,0.001,0.001,0.001,0.002,0.002,0.003
461,0,0.004,0.005,0.003,0.002,0.001,0.002,0.001,0.003,0.004,0.001,0.001,0.001,0.002,0.002,0.003
462,0,0.004,0.005,0.003,0.002,0.001,0.002,0.001,0.003,0.004,0.001,0.001,0.001,0.002,0.002,0.002
463,0,0.004,0.005,0.003,0.002,0.001,0.002,0.001,0.003,0.004,0.001,0.001,0.001,0.001,0.002,0.002
464,0,0.003,0.005,0.003,0.002,0.001,0.002,0.001,0.003,0.004,0.001,0.001,0.001,0.002,0.002,0.002
465,0,0.003,0.005,0.003,0.002,0.001,0.002,0.001,0.003,0.004,0.001,0.001,0,0.001,0.002,0.002
466,0,0.003,0.005,0.003,0.002,0.001,0.002,0.001,0.003,0.004,0.001,0.001,0,0.002,0.002,0.002
467,0,0.003,0.005,0.003,0.002,0.001,0.002,0.001,0.003,0.004,0.001,0.001,0,0.001,0.002,0.002
468,0,0.003,0.005,0.003,0.002,0.001,0.002,0.001,0.003,0.004,0.001,0.001,0.001,0.001,0.002,0.002
469,0,0.003,0.005,0.003,0.002,0.001,0.002,0.001,0.003,0.004,0.001,0.001,0.001,0.001,0.002,0.002
470,0,0.003,0.005,0.003,0.002,0.001,0.002,0.001,0.003,0.004,0.001,0.001,0.001,0.001,0.002,0.002
471,0,0.003,0.005,0.003,0.002,0.001,0.002,0,0.003,0.004,0.001,0.001,0,0.001,0.002,0.002
472,0,0.003,0.005,0.003,0.002,0.001,0.002,0,0.003,0.004,0.001,0.001,0.001,0.001,0.002,0.002
473,0,0.003,0.005,0.003,0.002,0.001,0.002,0,0.003,0.004,0.001,0.001,0,0.001,0.002,0.002
474,0,0.003,0.005,0.003,0.002,0.001,0.002,0,0.003,0.004,0.001,0.001,0,0.001,0.002,0.002
475,0,0.003,0.004,0.003,0.002,0.001,0.002,0,0.003,0.004,0.001,0.001,0,0.001,0.002,0.002
476,0,0.003,0.004,0.003,0.002,0.001,0.002,0,0.003,0.004,0.001,0.001,0,0.001,0.002,0.002
477,0,0.003,0.004,0.003,0.001,0.001,0.002,0,0.003,0.004,0.001,0.001,0,0.001,0.002,0.002
478,0,0.003,0.004,0.003,0.001,0.001,0.002,0,0.003,0.004,0.001,0.001,0,0.001,0.001,0.002
479,0,0.003,0.004,0.003,0.001,0.001,0.001,0,0.003,0.004,0.001,0.001,0,0.001,0.001,0.002
480,0,0.003,0.004,0.003,0.001,0.001,0.001,0,0.003,0.004,0,0.001,0,0.001,0.001,0.002
481,0,0.003,0.004,0.003,0.001,0.001,0.001,0,0.003,0.004,0.001,0.001,0,0.001,0.001,0.002
482,0,0.003,0.004,0.003,0.001,0.001,0.002,0,0.003,0.004,0,0.001,0,0.001,0.001,0.002
483,0,0.002,0.004,0.003,0.001,0.001,0.001,0,0.003,0.004,0,0.001,0,0.001,0.001,0.002
484,0,0.002,0.004,0.003,0.001,0.001,0.001,0,0.003,0.004,0,0.001,0,0.001,0.001,0.002
485,0,0.002,0.004,0.003,0.001,0.001,0.001,0,0.003,0.004,0,0.001,0,0.001,0.001,0.002
486,0,0.002,0.004,0.003,0.001,0.001,0.001,0,0.003,0.004,0,0.001,0,0.001,0.001,0.002
487,0,0.002,0.004,0.003,0.001,0.001,0.001,0,0.003,0.004,0,0.001,0,0.001,0.001,0.002
488,0,0.002,0.004,0.003,0.001,0.001,0.001,0,0.003,0.004,0,0.001,0,0.001,0.001,0.002
489,0,0.002,0.004,0.003,0.001,0.001,0.001,0,0.003,0.004,0,0.001,0,0.001,0.001,0.002
490,0,0.002,0.004,0.003,0.001,0.001,0.001,0,0.003,0.004,0,0.001,0,0.001,0.001,0.002
491,0,0.002,0.004,0.003,0.001,0,0.001,0,0.003,0.003,0,0.001,0,0.001,0.001,0.001
492,0,0.002,0.004,0.003,0.001,0,0.001,0,0.003,0.003,0,0.001,0,0.001,0.001,0.001
493,0,0.002,0.004,0.002,0.001,0,0.001,0,0.003,0.003,0,0.001,0,0.001,0.001,0.001
494,0,0.002,0.004,0.003,0.001,0,0.001,0,0.003,0.003,0,0.001,0,0.001,0.001,0.001
495,0,0.002,0.004,0.003,0.001,0.001,0.001,0,0.003,0.003,0,0.001,0,0.001,0.001,0.001
496,0,0.002,0.004,0.003,0.001,0.001,0.001,0,0.003,0.003,0,0.001,0,0.001,0.001,0.002
497,0,0.002,0.004,0.003,0.001,0.001,0.001,0,0.003,0.003,0,0.001,0,0.001,0.001,0.001
498,0,0.002,0.004,0.003,0.001,0.001,0.001,0,0.003,0.003,0,0.001,0,0.001,0.001,0.001
499,0,0.002,0.004,0.002,0.001,0,0.001,0,0.002,0.003,0,0.001,0,0.001,0.001,0.001
500,0,0.002,0.004,0.002,0.001,0,0.001,0,0.002,0.003,0,0.001,0,0.001,0.001,0.001
501,0,0.002,0.004,0.002,0.001,0,0.001,0,0.002,0.003,0,0.001,0,0.001,0.001,0.001
502,0,0.002,0.004,0.002,0.001,0,0.001,0,0.002,0.003,0,0.001,0,0.001,0.001,0.001
503,0,0.002,0.004,0.002,0.001,0,0.001,0,0.002,0.003,0,0,0,0.001,0.001,0.001
504,0,0.002,0.004,0.002,0.001,0,0.001,0,0.002,0.003,0,0,0,0.001,0.001,0.001
505,0,0.002,0.004,0.002,0.001,0,0.001,0,0.002,0.003,0,0,0,0.001,0.001,0.001
506,0,0.002,0.004,0.002,0.001,0.001,0.001,0,0.002,0.003,0,0.001,0,0.001,0.001,0.001
507,0,0.002,0.004,0.002,0.001,0,0.001,0,0.002,0.003,0,0,0,0.001,0.001,0.001
508,0,0.002,0.004,0.002,0.001,0,0.001,0,0.002,0.003,0,0,0,0.001,0.001,0.001
509,0,0.002,0.004,0.002,0.001,0,0.001,0,0.002,0.003,0,0,0,0.001,0.001,0.001
510,0,0.002,0.004,0.002,0.001,0,0.001,0,0.002,0.003,0,0,0,0.001,0.001,0.001
511,0,0.002,0.004,0.002,0.001,0,0.001,0,0.002,0.003,0,0,0,0.001,0.001,0.001
512,0,0.002,0.004,0.002,0.001,0,0.001,0,0.002,0.003,0,0,0,0.001,0.001,0.001
513,0,0.002,0.004,0.002,0.001,0,0.001,0,0.002,0.003,0,0,0,0.001,0.001,0.001
514,0,0.002,0.004,0.002,0.001,0,0.001,0,0.002,0.003,0,0,0,0.001,0.001,0.001
515,0,0.002,0.004,0.002,0.001,0,0.001,0,0.002,0.003,0,0,0,0.001,0.001,0.001
516,0,0.002,0.004,0.002,0.001,0,0.001,0,0.002,0.003,0,0,0,0.001,0.001,0.001
517,0,0.002,0.004,0.002,0.001,0,0.001,0,0.002,0.003,0,0,0,0.001,0.001,0.001
518,0,0.002,0.004,0.002,0.001,0,0.001,0,0.002,0.003,0,0,0,0.001,0.001,0.001
519,0,0.002,0.004,0.002,0.001,0,0.001,0,0.002,0.003,0,0,0,0.001,0.001,0.001
520,0,0.002,0.004,0.002,0.001,0,0.001,0,0.002,0.003,0,0,0,0.001,0.001,0.001
521,0,0.002,0.004,0.002,0.001,0,0.001,0,0.002,0.003,0,0,0,0.001,0.001,0.001
522,0,0.002,0.004,0.002,0.001,0,0.001,0,0.002,0.003,0,0,0,0.001,0.001,0.001
523,0,0.002,0.004,0.002,0.001,0,0.001,0,0.002,0.003,0,0,0,0.001,0.001,0.001
524,0,0.002,0.004,0.002,0.001,0,0.001,0,0.002,0.003,0,0,0,0.001,0.001,0.001
525,0,0.002,0.004,0.002,0.001,0,0.001,0,0.002,0.003,0,0,0,0.001,0.001,0.001
526,0,0.002,0.004,0.002,0.001,0,0.001,0,0.002,0.003,0,0,0,0.001,0.001,0.001
527,0,0.002,0.004,0.002,0.001,0,0.001,0,0.002,0.003,0,0,0,0,0.001,0.001
528,0,0.002,0.004,0.002,0.001,0,0.001,0,0.002,0.003,0,0,0,0,0.001,0.001
529,0,0.001,0.004,0.002,0.001,0,0.001,0,0.002,0.003,0,0,0,0,0.001,0.001
530,0,0.001,0.004,0.002,0.001,0,0.001,0,0.002,0.003,0,0,0,0,0.001,0.001
531,0,0.001,0.004,0.002,0.001,0,0,0,0.002,0.003,0,0,0,0,0.001,0.001
532,0,0.001,0.004,0.002,0.001,0,0.001,0,0.002,0.003,0,0,0,0,0.001,0.001
533,0,0.001,0.004,0.002,0.001,0,0.001,0,0.002,0.003,0,0,0,0,0.001,0.001
534,0,0.001,0.004,0.002,0.001,0,0.001,0,0.002,0.003,0,0,0,0,0.001,0.001
535,0,0.002,0.004,0.002,0.001,0,0.001,0,0.002,0.003,0,0,0,0.001,0.001,0.001
536,0.001,0.002,0.005,0.003,0.002,0.001,0.002,0.001,0.003,0.004,0.001,0.001,0.001,0.002,0.002,0.002
537,0,0.001,0.004,0.002,0.001,0,0.001,0,0.002,0.003,0,0,0,0.001,0.001,0.001
538,0,0.001,0.003,0.002,0.001,0,0,0,0.002,0.003,0,0,0,0,0,0.001
539,0,0.001,0.003,0.002,0.001,0,0,-0.001,0.002,0.003,0,0,0,0,0,0.001
540,0,0.001,0.004,0.002,0.001,0,0,0,0.002,0.003,0,0,0,0,0,0.001
541,0,0.001,0.003,0.002,0.001,0,0,0,0.002,0.003,0,0,0,0,0,0.001
542,0,0.001,0.004,0.002,0.001,0,0,0,0.002,0.003,0,0,0,0,0,0.001
543,0,0.001,0.003,0.002,0.001,0,0,0,0.002,0.003,0,0,0,0,0,0.001
544,0,0.001,0.003,0.002,0,0,0,0,0.002,0.003,0,0,0,0,0,0.001
545,0,0.001,0.003,0.002,0.001,0,0,0,0.002,0.003,0,0,0,0,0,0.001
546,0,0.001,0.003,0.002,0,0,0,0,0.002,0.003,0,0,0,0,0,0.001
547,0,0.001,0.003,0.002,0,0,0,-0.001,0.002,0.003,0,0,0,0,0,0.001
548,0,0.001,0.003,0.002,0.001,0,0,0,0.002,0.003,0,0,0,0,0,0.001
549,0,0.001,0.003,0.002,0.001,0,0,-0.001,0.002,0.003,0,0,0,0,0,0.001
550,0,0.001,0.003,0.002,0.001,0,0,-0.001,0.002,0.003,0,0,0,0,0,0.001
551,0,0.001,0.003,0.002,0,0,0,-0.001,0.002,0.003,0,0,0,0,0,0.001
552,0,0.001,0.003,0.002,0.001,0,0,-0.001,0.002,0.003,0,0,0,0,0,0.001
553,0,0.001,0.003,0.002,0.001,0,0,-0.001,0.002,0.003,0,0,0,0,0,0.001
554,0,0.001,0.003,0.002,0.001,0,0,-0.001,0.002,0.002,0,0,0,0,0,0.001
555,0,0.001,0.003,0.002,0,0,0,-0.001,0.002,0.003,0,0,0,0,0,0.001
556,0,0.001,0.003,0.001,0,0,0,-0.001,0.002,0.003,0,0,0,0,0,0.001
557,0,0.001,0.003,0.002,0,0,0,-0.001,0.002,0.003,0,0,0,0,0,0.001
558,0,0.001,0.003,0.002,0,0,0,-0.001,0.002,0.003,0,0,0,0,0,0.001
559,0,0.001,0.003,0.002,0,0,0,-0.001,0.002,0.002,0,0,0,0,0,0.001
560,0,0.001,0.003,0.002,0.001,0,0,0,0.002,0.003,0,0,0,0,0,0.001
561,0,0.001,0.003,0.002,0,0,0,0,0.002,0.002,0,0,0,0,0,0.001
562,0,0.001,0.003,0.001,0,0,0,-0.001,0.002,0.002,0,0,0,0,0,0.001
563,0,0.001,0.003,0.002,0,0,0,-0.001,0.002,0.002,0,0,0,0,0,0.001
564,0,0.001,0.003,0.002,0,0,0,-0.001,0.002,0.002,0,0,0,0,0,0.001
565,0,0.001,0.003,0.002,0,0,0,-0.001,0.002,0.002,0,0,0,0,0,0.001
566,0,0.001,0.003,0.001,0,0,0,-0.001,0.002,0.002,0,0,0,0,0,0.001
567,0,0.001,0.003,0.001,0,0,0,0,0.002,0.002,0,0,0,0,0,0.001
568,0,0.001,0.003,0.002,0,0,0,0,0.002,0.003,0,0,0,0,0,0.001
569,0,0.001,0.003,0.001,0.001,0,0,-0.001,0.002,0.002,0,0,0,0,0,0.001
570,0,0.001,0.003,0.001,0.001,0,0,0,0.002,0.002,0,0,0,0,0,0.001
571,0,0.001,0.003,0.002,0,0,0,0,0.002,0.002,0,0,0,0,0,0.001
572,0,0.001,0.003,0.002,0.001,0,0,0,0.002,0.002,0,0,0,0,0,0.001
573,0,0.001,0.003,0.001,0,0,0,0,0.002,0.002,0,0,0,0,0,0.001
574,0,0.001,0.003,0.001,0,0,0,-0.001,0.002,0.002,0,0,0,0,0,0.001
575,0,0.001,0.003,0.001,0.001,0,0,0,0.002,0.002,0,0,0,0,0,0.001
576,0,0.001,0.004,0.002,0.001,0,0,0,0.002,0.002,0,0,0,0,0,0.001
577,0,0.001,0.003,0.002,0.001,0,0,0,0.002,0.002,0,0,0,0,0,0.001
578,0,0.001,0.003,0.001,0.001,0,0,-0.001,0.002,0.002,0,0,0,0,0,0.001
579,0,0.001,0.003,0.001,0.001,0,0,0,0.002,0.002,0,0,0,0,0,0.001
580,0,0.001,0.003,0.001,0.001,0,0,0,0.002,0.002,0,0,0,0,0,0.001
581,0,0.001,0.003,0.001,0,0,0,-0.001,0.002,0.002,0,0,0,0,0,0.001
582,0,0.001,0.003,0.001,0.001,0,0,0,0.002,0.002,0,0,0,0,0,0.001
583,0,0.001,0.003,0.001,0.001,0,0,0,0.002,0.002,0,0,0,0,0,0.001
584,0,0.001,0.003,0.002,0.001,0,0,0,0.002,0.002,0,0,0,0,0,0.001
585,0,0.001,0.003,0.001,0.001,0,0,0,0.002,0.002,0,0,0,0,0,0.001
586,0,0.001,0.003,0.001,0,0,0,-0.001,0.002,0.002,0,0,0,0,0,0
587,0,0.001,0.003,0.002,0.001,0,0,0,0.002,0.002,0,0,0,0,0,0.001
588,0,0.001,0.003,0.001,0,0,0,0,0.002,0.002,0,0,0,0,0,0.001
589,0,0.001,0.003,0.001,0,0,0,-0.001,0.002,0.002,0,0,0,0,0,0.001
590,0,0.001,0.003,0.001,0,0,0,-0.001,0.002,0.002,0,0,0,0,0,0
591,0,0.001,0.003,0.001,0,0,0,-0.001,0.002,0.002,0,0,0,0,0,0
592,0,0.001,0.003,0.001,0,0,0,-0.001,0.002,0.002,0,0,0,0,0,0.001
593,0,0.001,0.003,0.002,0,0,0,-0.001,0.002,0.002,0,0,0,0,0,0.001
594,0,0.001,0.003,0.002,0,0,0,-0.001,0.002,0.002,0,0,0,0,0,0
595,0,0.001,0.003,0.001,0,0,0,-0.001,0.002,0.002,0,0,0,0,0,0
596,0,0.001,0.003,0.001,0,0,0,-0.001,0.002,0.002,0,0,0,0,0,0
597,0,0.001,0.003,0.001,0,0,0,-0.001,0.002,0.002,0,0,0,0,0,0
598,0,0.001,0.003,0.001,0,0,0,-0.001,0.002,0.002,0,0,0,0,0,0
599,0,0.001,0.003,0.001,0,0,0,-0.001,0.002,0.002,0,0,0,0,0,0
600,0,0.001,0.003,0.001,0,0,0,-0.001,0.002,0.002,0,0,0,0,0,0
601,0,0.001,0.003,0.001,0,0,0,-0.001,0.002,0.002,0,0,0,0,0,0
602,0,0.001,0.003,0.002,0,0,0,-0.001,0.002,0.002,0,0,0,0,0,0
603,0,0.001,0.003,0.001,0,0,0,-0.001,0.002,0.002,0,0,-0.001,0,0,0
604,0,0.001,0.003,0.001,0,0,0,-0.001,0.002,0.002,0,0,0,0,0,0
605,0,0.001,0.003,0.001,0,0,0,-0.001,0.002,0.002,0,0,0,0,0,0
606,0,0.001,0.003,0.001,0,0,0,-0.001,0.002,0.002,0,0,0,0,0,0
607,0,0.001,0.003,0.001,0,0,0,-0.001,0.002,0.002,0,0,0,0,0,0
608,0,0,0.003,0.001,0,0,0,-0.001,0.002,0.002,0,0,0,0,0,0
609,0,0,0.003,0.001,0,0,0,-0.001,0.002,0.002,0,0,-0.001,0,0,0
610,0,0.001,0.003,0.001,0,0,0,-0.001,0.002,0.002,0,0,0,0,0,0
611,0,0.001,0.003,0.001,0,0,0,-0.001,0.002,0.002,0,0,0,0,0,0
612,0,0.001,0.003,0.002,0,0,0,-0.001,0.002,0.002,0,0,0,0,0,0
613,0,0.001,0.003,0.001,0,0,0,-0.001,0.002,0.002,0,0,0,0,0,0
614,0,0.001,0.003,0.001,0,0,0,-0.001,0.002,0.002,0,0,0,0,0,0
615,0,0,0.003,0.001,0,0,0,-0.001,0.002,0.002,0,0,0,0,0,0
616,0,0,0.003,0.001,0,0,0,-0.001,0.002,0.002,0,0,0,0,0,0
617,0,0,0.003,0.001,0,0,0,-0.001,0.002,0.002,0,0,0,0,0,0
618,0,0,0.003,0.001,0,0,0,-0.001,0.002,0.002,0,0,0,0,0,0
619,0,0,0.003,0.001,0,0,0,-0.001,0.001,0.002,0,0,0,0,0,0
620,0,0,0.003,0.001,0,0,0,-0.001,0.002,0.002,0,0,0,0,0,0
621,0,0,0.003,0.002,0,0,0,-0.001,0.002,0.002,0,0,0,0,0,0
622,0,0,0.003,0.002,0,0,0,-0.001,0.002,0.002,0,0,0,0,0,0
623,0,0,0.003,0.001,0,0,0,-0.001,0.002,0.002,0,0,0,0,0,0
624,0,0,0.003,0.002,0,0,0,-0.001,0.002,0.002,0,0,0,0,0,0
625,0,0,0.003,0.001,0,0,0,-0.001,0.002,0.002,0,0,0,0,0,0
626,0,0,0.003,0.001,0,0,0,-0.001,0.002,0.002,0,0,0,0,0,0
627,0,0,0.003,0.001,0,0,0,-0.001,0.002,0.002,0,0,0,0,0,0
628,0,0,0.003,0.001,0,0,0,-0.001,0.002,0.002,0,0,0,0,0,0
629,0,0,0.003,0.001,0,0,0,-0.001,0.002,0.002,0,0,0,0,0,0
630,0,0,0.003,0.001,0,0,0,-0.001,0.002,0.002,0,0,0,0,0,0
631,0,0,0.003,0.001,0,0,0,-0.001,0.001,0.002,0,0,0,0,0,0
632,0,0,0.003,0.001,0,0,0,-0.001,0.001,0.002,0,0,0,0,0,0
633,0,0,0.003,0.001,0,0,0,-0.001,0.001,0.002,0,0,0,0,0,0
634,0,0,0.003,0.001,0,0,0,-0.001,0.001,0.002,0,0,0,0,0,0
635,0,0,0.003,0.001,0,0,0,-0.001,0.002,0.002,0,0,0,0,0,0
636,0,0,0.003,0.001,0,0,0,-0.001,0.001,0.002,0,0,0,0,0,0
637,0,0,0.003,0.001,0,0,0,-0.001,0.001,0.002,0,0,-0.001,0,0,0
638,0,0,0.003,0.001,0,0,0,-0.001,0.001,0.002,0,0,0,0,0,0
639,0,0,0.003,0.001,0,0,0,-0.001,0.001,0.002,0,0,0,0,0,0
640,0,0,0.003,0.001,0,0,0,-0.001,0.001,0.002,0,0,0,0,0,0
641,0,0,0.003,0.001,0,0,0,-0.001,0.001,0.002,0,-0.001,0,0,0,0
642,0,0,0.003,0.001,0,0,0,-0.001,0.001,0.002,0,0,0,0,0,0
643,0,0,0.003,0.001,0,0,0,-0.001,0.001,0.002,0,-0.001,0,0,0,0
644,0,0,0.003,0.001,0,0,0,-0.001,0.001,0.002,0,0,0,0,0,0
645,0,0,0.003,0.001,0,0,0,-0.001,0.001,0.002,0,-0.001,0,0,0,0
646,0,0,0.003,0.001,0,0,0,-0.001,0.001,0.002,0,-0.001,0,0,0,0
647,0,0,0.003,0.001,0,0,0,-0.001,0.001,0.002,0,0,0,0,0,0
648,0,0,0.003,0.001,0,0,0,-0.001,0.001,0.002,0,-0.001,0,0,0,0
649,0,0,0.003,0.001,0,0,0,-0.001,0.002,0.002,0,0,0,0,0,0
650,0,0,0.003,0.001,0,0,0,-0.001,0.001,0.002,0,0,0,0,0,0
651,0,0,0.003,0.001,0,0,0,-0.001,0.001,0.002,0,0,0,0,0,0
652,0,0,0.003,0.001,0,0,0,-0.001,0.001,0.002,0,0,0,0,0,0
653,0,0,0.003,0.001,0,0,0,-0.001,0.001,0.002,0,0,0,0,0,0
654,0,0,0.003,0.001,0,0,0,-0.001,0.001,0.002,0,0,0,0,0,0
655,0,0,0.003,0.001,0,0,0,-0.001,0.001,0.002,0,0,0,0,0,0
656,0,0,0.003,0.001,0,0,0,-0.001,0.002,0.002,0,0,0,0,0,0
657,0,0,0.003,0.001,0,0,0,-0.001,0.001,0.002,0,0,0,0,0,0
658,0,0,0.003,0.001,0,0,0,-0.001,0.001,0.002,0,0,0,0,0,0
659,0,0,0.003,0.001,0,0,0,-0.001,0.001,0.002,0,0,0,0,0,0
660,0,0,0.003,0.001,0,0,0,-0.001,0.001,0.002,0,0,0,0,0,0
661,0,0.001,0.003,0.001,0,0,0,-0.001,0.002,0.002,0,0,0,0,0,0
662,0,0,0.003,0.001,0,0,0,-0.001,0.002,0.002,0,0,0,0,0,0
663,0,0,0.003,0.001,0,0,0,-0.001,0.001,0.002,0,0,0,0,0,0
664,0,0,0.003,0.001,0,0,0,-0.001,0.001,0.002,0,0,0,0,0,0
665,0,0.001,0.003,0.001,0,0,0,-0.001,0.002,0.002,0,0,0,0,0,0
666,0,0,0.003,0.001,0,0,0,-0.001,0.001,0.002,0,-0.001,0,0,0,0
667,0,0,0.003,0.001,0,0,0,-0.001,0.001,0.002,0,0,0,0,0,0
668,0,0,0.003,0.001,0,0,0,-0.001,0.001,0.002,0,0,0,0,0,0
669,0,0,0.003,0.001,0,0,0,-0.001,0.002,0.002,0,0,0,0,0,0
670,0,0.001,0.003,0.001,0,0,0,-0.001,0.002,0.002,0,0,0,0,0,0
671,0,0,0.003,0.001,0,0,0,-0.001,0.001,0.002,0,0,0,0,0,0
672,0,0,0.003,0.001,0,0,0,-0.001,0.002,0.002,0,0,0,0,0,0
673,0,0.001,0.003,0.001,0,0,0,-0.001,0.002,0.002,0,0,0,0,0,0
674,0,0,0.003,0.001,0,0,0,-0.001,0.001,0.002,0,0,0,0,0,0
675,0,0,0.003,0.001,0,0,0,-0.001,0.001,0.002,0,-0.001,0,0,0,0
676,0,0,0.003,0.001,0,0,0,-0.001,0.001,0.002,0,-0.001,0,0,0,0
677,0,0,0.003,0.001,0,0,0,-0.001,0.001,0.002,0,-0.001,0,0,0,0
678,0,0,0.003,0.001,0,0,0,-0.001,0.001,0.002,0,-0.001,0,0,0,0
679,0,0,0.003,0.001,0,0,0,-0.001,0.001,0.002,0,-0.001,0,0,0,0
680,0,0,0.003,0.001,0,0,0,-0.001,0.001,0.002,0,0,0,0,0,0
681,0,0,0.003,0.001,0,0,0,-0.001,0.001,0.002,0,-0.001,0,0,0,0
682,0,0,0.003,0.001,0,0,0,-0.001,0.001,0.002,0,0,0,0,0,0
683,0,0,0.003,0.001,0,0,0,-0.001,0.001,0.002,0,0,0,0,0,0
684,0,0,0.003,0.001,0,0,0,-0.001,0.001,0.002,0,0,0,0,0,0
685,0,0,0.003,0.001,0,0,0,-0.001,0.001,0.002,0,0,0,0,0,0
686,0,0,0.003,0.001,0,0,0,-0.001,0.001,0.002,0,0,0,0,0,0
687,0,0,0.003,0.001,0,0,0,-0.001,0.001,0.002,-0.001,-0.001,0,0,0,0
688,0,0,0.003,0.001,0,0,0,-0.001,0.001,0.002,-0.001,-0.001,0,0,0,0
689,0,0,0.003,0.001,0,0,0,-0.001,0.001,0.002,-0.001,0,0,0,0,0
690,0,0,0.003,0.001,0,0,0,-0.001,0.001,0.002,0,0,0,0,0,0
691,0,0,0.003,0.001,0,0,0,-0.001,0.001,0.002,0,-0.001,0,0,0,0
692,0,0,0.003,0.001,0,0,0,-0.001,0.001,0.002,0,0,0,0,0,0
693,0,0,0.003,0.001,0,0,0,-0.001,0.001,0.002,0,0,0,0,0,0
694,0,0,0.003,0.001,0,0,0,-0.001,0.001,0.002,0,0,0,0,0,0
695,0,0,0.003,0.001,0,0,0,-0.001,0.001,0.002,0,0,0,0,0,0
696,0,0,0.003,0.001,0,0,0,-0.001,0.001,0.002,0,-0.001,0,0,0,0
697,0,0,0.003,0.001,0,0,0,-0.001,0.001,0.002,-0.001,-0.001,0,0,0,0
698,0,0,0.003,0.001,0,0,0,-0.001,0.001,0.002,0,-0.001,0,0,0,0
699,0,0,0.003,0.001,0,0,0,-0.001,0.001,0.002,0,-0.001,0,0,0,0
700,0,0,0.003,0.001,0,0,0,-0.001,0.001,0.002,0,0,0,0,0,0
701,0,0,0.003,0.001,0,0,0,-0.001,0.001,0.002,0,0,0,0,0,0
702,0,0,0.003,0.001,0,0,0,-0.001,0.001,0.002,0,-0.001,0,0,0,0
703,0,0,0.003,0.001,0,0,-0.001,-0.001,0.001,0.002,-0.001,-0.001,0,0,0,0
704,0,0,0.003,0.001,0,0,0,-0.001,0.001,0.002,-0.001,-0.001,0,0,0,0
705,0,0,0.003,0.001,0,0,0,-0.001,0.001,0.002,-0.001,-0.001,0,0,0,0
706,0,0,0.003,0.001,0,0,0,-0.001,0.001,0.002,-0.001,-0.001,0,0,0,0
707,0,0,0.003,0.001,0,0,0,-0.001,0.001,0.002,0,0,0,0,0,0
708,0,0,0.003,0.001,0,0,0,-0.001,0.001,0.002,-0.001,0,0,0,0,0
709,0,0,0.003,0.001,0,0,0,-0.001,0.001,0.002,0,0,0,0,0,0
710,0,0,0.003,0.001,0,0,0,-0.001,0.001,0.002,-0.001,-0.001,0,0,0,0
711,0,0,0.003,0.001,0,0,-0.001,-0.001,0.001,0.001,-0.001,-0.001,0,0,0,0
712,0,0,0.003,0.001,0,0,-0.001,-0.001,0.001,0.002,-0.001,-0.001,0,0,0,0
713,0,0,0.003,0.001,0,0,-0.001,-0.001,0.001,0.002,-0.001,-0.001,0,0,0,0
714,0,0,0.003,0.001,0,0,0,-0.001,0.001,0.002,0,-0.001,0,0,0,0
715,0,0,0.003,0.001,0,0,0,-0.001,0.001,0.001,-0.001,-0.001,0,0,0,0
716,0,0,0.003,0.001,0,-0.001,0,-0.001,0.001,0.002,-0.001,-0.001,0,0,0,0
717,0,0,0.003,0.001,0,-0.001,0,-0.001,0.001,0.002,-0.001,-0.001,0,0,0,0
718,0,0,0.003,0.001,0,0,-0.001,-0.001,0.001,0.001,-0.001,-0.001,0,0,0,0
719,0,0,0.003,0.001,0,0,-0.001,-0.001,0.001,0.001,-0.001,-0.001,0,0,0,0
720,0,0,0.003,0.001,0,0,-0.001,-0.001,0.001,0.001,-0.001,-0.001,0,0,-0.001,0
721,0,0,0.003,0.001,0,-0.001,-0.001,-0.001,0.001,0.001,-0.001,-0.001,0,0,-0.001,0
722,0,0,0.003,0.001,0,0,-0.001,-0.001,0.001,0.001,-0.001,-0.001,0,0,-0.001,0
723,0,0,0.003,0.001,0,-0.001,-0.001,-0.001,0.001,0.001,-0.001,-0.001,0,0,-0.001,0
724,0,0,0.003,0.001,0,-0.001,-0.001,-0.001,0.001,0.001,-0.001,-0.001,0,0,-0.001,0
725,0,0,0.003,0.001,0,-0.001,-0.001,-0.001,0.001,0.001,-0.001,-0.001,-0.001,0,-0.001,0
726,0,0,0.003,0.001,0,-0.001,-0.001,-0.001,0.001,0.001,-0.001,-0.001,0,0,-0.001,0
727,0,0,0.003,0.001,0,0,-0.001,-0.001,0.001,0.001,-0.001,-0.001,0,0,-0.001,0
728,0,0,0.003,0.001,0,0,-0.001,-0.001,0.001,0.001,-0.001,-0.001,0,0,-0.001,0
729,0,0,0.003,0.001,0,0,-0.001,-0.001,0.001,0.001,-0.001,-0.001,0,0,-0.001,0
730,0,0,0.003,0.001,0,0,-0.001,-0.001,0.001,0.001,-0.001,-0.001,-0.001,0,-0.001,0
731,0,0,0.003,0.001,0,0,-0.001,-0.001,0.001,0.001,-0.001,-0.001,0,0,-0.001,0
732,0,0,0.003,0.001,0,0,-0.001,-0.001,0.001,0.001,-0.001,-0.001,0,0,-0.001,0
733,0,0,0.003,0.001,0,0,-0.001,-0.001,0.001,0.001,-0.001,-0.001,0,0,-0.001,0
734,0,0,0.003,0.001,0,-0.001,-0.001,-0.001,0.001,0.001,-0.001,-0.001,0,0,-0.001,0
735,0,0,0.003,0.001,0,-0.001,-0.001,-0.001,0.001,0.001,-0.001,-0.001,0,0,-0.001,0
736,0,0,0.003,0.001,0,-0.001,-0.001,-0.001,0.001,0.001,-0.001,-0.001,-0.001,0,-0.001,0
737,0,0,0.003,0.001,0,-0.001,-0.001,-0.001,0.001,0.001,-0.001,-0.001,-0.001,0,-0.001,0
738,0,0,0.003,0.001,0,-0.001,-0.001,-0.001,0.001,0.001,-0.001,-0.001,-0.001,0,-0.001,0
739,0,0,0.003,0.001,0,-0.001,-0.001,-0.001,0.001,0.001,-0.001,-0.001,-0.001,0,-0.001,0
740,0,0,0.003,0.001,0,-0.001,-0.001,-0.001,0.001,0.001,-0.001,-0.001,-0.001,-0.001,-0.001,0
741,0,0,0.003,0.001,0,0,-0.001,-0.001,0.001,0.001,-0.001,-0.001,0,0,-0.001,0
742,0,0,0.003,0.001,0,-0.001,-0.001,-0.001,0.001,0.001,-0.001,-0.001,-0.001,0,-0.001,0
743,0,0,0.003,0.001,0,-0.001,-0.001,-0.001,0.001,0.001,-0.001,-0.001,-0.001,0,-0.001,0
744,0,0,0.003,0.001,0,-0.001,-0.001,-0.001,0.001,0.001,-0.001,-0.001,-0.001,-0.001,-0.001,0
745,0,0,0.003,0.001,0,-0.001,-0.001,-0.001,0.001,0.001,-0.001,-0.001,-0.001,-0.001,-0.001,0
746,0,0,0.003,0.001,0,0,-0.001,-0.001,0.001,0.001,-0.001,-0.001,-0.001,-0.001,-0.001,0
747,0,0,0.003,0.001,0,0,-0.001,-0.001,0.001,0.001,-0.001,-0.001,-0.001,0,-0.001,0
748,0,0,0.003,0.001,0,0,-0.001,-0.001,0.001,0.001,-0.001,-0.001,0,-0.001,-0.001,0
749,0,0,0.003,0.001,0,0,-0.001,-0.001,0.001,0.001,-0.001,-0.001,-0.001,0,-0.001,0
750,0,0,0.003,0.001,0,-0.001,-0.001,-0.001,0.001,0.001,-0.001,-0.001,-0.001,0,-0.001,0
751,0,0,0.003,0.001,0,0,-0.001,-0.001,0.001,0.001,-0.001,-0.001,-0.001,0,-0.001,0
752,0,0,0.003,0.001,0,0,-0.001,-0.001,0.001,0.001,-0.001,-0.001,0,0,-0.001,0
753,0,0,0.003,0.001,0,0,-0.001,-0.001,0.001,0.001,-0.001,-0.001,0,0,-0.001,0
754,0,0,0.003,0.001,0,0,-0.001,-0.001,0.001,0.001,-0.001,-0.001,0,0,-0.001,0
755,0,0,0.003,0.001,0,0,-0.001,-0.001,0.001,0.001,-0.001,-0.001,0,0,-0.001,0
756,0,0,0.003,0.001,0,0,-0.001,-0.001,0.001,0.001,-0.001,-0.001,-0.001,0,-0.001,0
757,0,0,0.003,0.001,0,0,-0.001,-0.001,0.001,0.001,-0.001,-0.001,-0.001,0,-0.001,0
758,0,0,0.003,0.001,0,0,-0.001,-0.001,0.001,0.001,-0.001,-0.001,0,0,-0.001,0
759,0,0,0.003,0.001,0,0,0,-0.001,0.001,0.002,-0.001,-0.001,0,0,0,0
760,0.001,0.001,0.004,0.002,0.001,0.001,0.001,0,0.002,0.003,0.001,0.001,0.001,0.001,0.001,0.001
761,0,0,0.003,0.001,0,0,0,-0.001,0.001,0.002,0,0,0,0,0,0
762,0,0,0.003,0.001,0,0,0,-0.001,0.001,0.002,-0.001,-0.001,0,0,-0.001,0
763,0,0,0.003,0.001,0,0,-0.001,-0.001,0.001,0.002,-0.001,-0.001,0,0,-0.001,0
764,0,0,0.003,0.001,0,0,0,-0.001,0.001,0.002,-0.001,-0.001,0,0,-0.001,0
765,0,0,0.003,0.001,0,0,0,-0.001,0.001,0.002,-0.001,-0.001,0,0,-0.001,0
766,0,0,0.003,0.001,0,0,-0.001,-0.001,0.001,0.002,-0.001,-0.001,0,0,-0.001,0
767,0,0,0.003,0.001,0,0,-0.001,-0.001,0.001,0.002,-0.001,-0.001,0,0,-0.001,0
768,0,0,0.003,0.001,0,0,-0.001,-0.001,0.001,0.002,-0.001,-0.001,0,0,-0.001,0
769,0,0,0.003,0.001,0,0,-0.001,-0.001,0.001,0.002,-0.001,-0.001,0,0,-0.001,0
770,0,0,0.003,0.001,0,0,0,-0.001,0.001,0.001,-0.001,-0.001,0,0,-0.001,0
771,0,0,0.003,0.001,0,0,-0.001,-0.001,0.001,0.002,-0.001,-0.001,0,0,-0.001,0
772,0,0,0.003,0.001,0,0,-0.001,-0.001,0.001,0.002,-0.001,-0.001,0,0,-0.001,0
773,0,0,0.003,0.001,0,0,0,-0.001,0.001,0.002,-0.001,-0.001,0,0,0,0
774,0,0,0.003,0.001,0,0,0,-0.001,0.001,0.002,-0.001,-0.001,0,0,0,0
775,0,0,0.003,0.001,0,0,0,-0.001,0.001,0.002,-0.001,-0.001,0,0,0,0
776,0,0,0.003,0.001,0,0,-0.001,-0.001,0.001,0.001,-0.001,-0.001,0,0,-0.001,0
777,0,0,0.003,0.001,0,0,-0.001,-0.001,0.001,0.001,-0.001,-0.001,0,0,-0.001,0
778,0,0,0.003,0.001,0,0,-0.001,-0.001,0.001,0.001,-0.001,-0.001,0,0,-0.001,0
779,0,0,0.003,0.001,0,0,-0.001,-0.001,0.001,0.001,-0.001,-0.001,0,0,-0.001,0
780,0,0,0.003,0.001,0,0,0,-0.001,0.001,0.002,-0.001,-0.001,0,0,-0.001,0
781,0,0,0.003,0.001,0,0,0,-0.001,0.001,0.002,-0.001,-0.001,0,0,-0.001,0
782,0,0,0.003,0.001,0,0,0,-0.001,0.001,0.001,-0.001,-0.001,0,0,-0.001,0
783,0,0,0.003,0.001,0,0,0,-0.001,0.001,0.002,-0.001,-0.001,0,0,0,0
784,0,0,0.003,0.001,0,0,0,-0.001,0.001,0.001,-0.001,-0.001,0,0,0,0
785,0,0,0.003,0.001,0,0,0,-0.001,0.001,0.002,-0.001,-0.001,0,0,0,0
786,0,0,0.003,0.001,0,0,0,-0.001,0.001,0.002,-0.001,-0.001,0,0,0,0
787,0,0,0.003,0.001,0,0,0,-0.001,0.001,0.002,0,-0.001,0,0,0,0
788,0,0,0.003,0.001,0,0,0,-0.001,0.001,0.002,-0.001,-0.001,0,0,-0.001,0
789,0,0,0.003,0.001,0,0,0,-0.001,0.001,0.002,-0.001,-0.001,0,0,-0.001,0
790,0,0,0.003,0.001,0,0,0,-0.001,0.001,0.002,-0.001,-0.001,0,0,-0.001,0
791,0,0,0.003,0.001,0,0,0,-0.001,0.001,0.002,0,-0.001,0,0,-0.001,0
792,0,0,0.003,0.001,0,0,0,-0.001,0.001,0.002,-0.001,-0.001,0,0,-0.001,0
793,0,0,0.003,0.001,0,0,0,-0.001,0.001,0.002,-0.001,-0.001,0,0,-0.001,0
794,0,0,0.003,0.001,0,0,0,-0.001,0.001,0.001,-0.001,-0.001,0,0,-0.001,0
795,0,0,0.003,0.001,0,0,-0.001,-0.001,0.001,0.001,-0.001,-0.001,0,0,-0.001,0
796,0,0,0.003,0.001,0,0,-0.001,-0.001,0.001,0.001,-0.001,-0.001,0,0,-0.001,0
797,0,0,0.003,0.001,0,0,0,-0.001,0.001,0.001,-0.001,-0.001,0,0,-0.001,0
798,0,0,0.003,0.001,0,0,0,-0.001,0.001,0.001,-0.001,-0.001,0,0,-0.001,0
799,0,0,0.003,0.001,0,0,0,-0.001,0.001,0.002,-0.001,-0.001,0,0,0,0
800,0,0,0.003,0.001,0,0,0,-0.001,0.001,0.002,-0.001,-0.001,0,0,-0.001,0
801,0,0,0.003,0.001,0,0,0,-0.001,0.001,0.002,-0.001,-0.001,0,0,-0.001,0
802,0,0,0.003,0.001,0,0,0,-0.001,0.001,0.002,0,-0.001,0,0,0,0
803,0,0,0.003,0.001,0,0,0,-0.001,0.001,0.002,-0.001,-0.001,0,0,0,0
804,0,0,0.003,0.001,0,0,0,-0.001,0.001,0.002,-0.001,-0.001,0,0,-0.001,0
805,0,0,0.003,0.001,0,0,0,-0.001,0.001,0.002,-0.001,-0.001,0,0,-0.001,0
806,0,0,0.003,0.001,0,0,0,-0.001,0.001,0.002,-0.001,-0.001,0,0,-0.001,0
807,0,0,0.003,0.001,0,0,0,-0.001,0.001,0.002,-0.001,-0.001,0,0,0,0
808,0,0,0.003,0.001,0,0,0,-0.001,0.001,0.002,-0.001,-0.001,0,0,0,0
809,0,0,0.003,0.001,0,0,0,0,0.001,0.002,-0.001,-0.001,0,0,0,0
810,0,0,0.003,0.001,0,0,0,-0.001,0.001,0.002,0,-0.001,0,0,0,0
811,0,0,0.003,0.001,0,0,0,-0.001,0.001,0.002,0,-0.001,0,0,-0.001,0
812,0,0,0.003,0.001,0,0,0,-0.001,0.001,0.001,0,-0.001,0,0,0,0
813,0,0,0.003,0.001,0,0,0,-0.001,0.001,0.002,0,-0.001,0,0,0,0
814,0,0,0.003,0.001,0,0,0,-0.001,0.001,0.002,-0.001,-0.001,0,0,-0.001,0
815,0,0,0.003,0.001,0,0,0,-0.001,0.001,0.001,-0.001,-0.001,0,0,0,0
816,0,0,0.003,0.001,0,0,0,-0.001,0.001,0.002,0,-0.001,0,0,0,0
817,0,0,0.003,0.001,0,0,0,-0.001,0.001,0.002,0,0,0,0,0,0
818,0,0,0.003,0.001,0,0,0,-0.001,0.001,0.002,0,-0.001,0,0,0,0
819,0,0,0.003,0.001,0,0,0,-0.001,0.001,0.002,0,-0.001,0,0,0,0
820,0,0,0.003,0.001,0,0,0,-0.001,0.001,0.002,-0.001,-0.001,0,0,0,0
821,0,0,0.003,0.001,0,0,0,-0.001,0.001,0.002,-0.001,-0.001,0,0,0,0
822,0,0,0.003,0.001,0,0,0,-0.001,0.001,0.001,-0.001,-0.001,0,0,0,0
823,0,0,0.003,0.001,0,0,-0.001,-0.001,0.001,0.001,-0.001,-0.001,0,0,-0.001,0
824,0,0,0.003,0.001,0,0,-0.001,-0.001,0.001,0.001,-0.001,-0.001,0,0,0,0
825,0,0,0.003,0.001,0,0,0,-0.001,0.001,0.002,-0.001,-0.001,0,0,0,0
826,0,0,0.003,0.001,0,0,0,-0.001,0.001,0.002,-0.001,-0.001,0,0,0,0
827,0,0,0.003,0.001,0,0,0,-0.001,0.001,0.002,-0.001,-0.001,0,0,-0.001,0
828,0,0,0.003,0.001,0,0,0,-0.001,0.001,0.001,0,-0.001,0,0,0,0
829,0,0,0.003,0.001,0,0,0,-0.001,0.001,0.001,-0.001,-0.001,0,0,-0.001,0
830,0,0,0.003,0.001,0,0,0,-0.001,0.001,0.001,-0.001,-0.001,0,0,-0.001,0
831,0,0,0.003,0.001,0,0,-0.001,-0.001,0.001,0.001,-0.001,-0.001,0,0,-0.001,0
832,0,0,0.003,0,0,0,-0.001,-0.001,0.001,0.001,-0.001,-0.001,0,0,-0.001,0
833,0,0,0.003,0,0,0,-0.001,-0.001,0.001,0.001,-0.001,-0.001,0,0,-0.001,0
834,0,0,0.003,0,0,0,-0.001,-0.001,0.001,0.001,-0.001,-0.001,0,0,-0.001,0
835,0,0,0.003,0.001,0,0,0,-0.001,0.001,0.001,-0.001,-0.001,0,0,-0.001,0
836,0,0,0.003,0.001,0,0,-0.001,-0.001,0.001,0.001,-0.001,-0.001,0,0,-0.001,0
837,0,0,0.003,0.001,0,0,-0.001,-0.001,0.001,0.001,-0.001,-0.001,0,0,0,0
838,0,0,0.003,0.001,0,0,-0.001,-0.001,0.001,0.001,-0.001,-0.001,0,0,-0.001,0
839,0,0,0.003,0.001,0,0,-0.001,-0.001,0.001,0.001,-0.001,-0.001,0,0,-0.001,0
840,0,0,0.003,0,0,0,-0.001,-0.001,0.001,0.001,-0.001,-0.001,0,0,-0.001,0
841,0,0,0.003,0.001,0,0,-0.001,-0.001,0.001,0.001,-0.001,-0.001,0,0,-0.001,0
842,0,0,0.003,0.001,0,0,-0.001,-0.001,0.001,0.001,-0.001,-0.001,0,0,-0.001,0
843,0,0,0.003,0,0,0,-0.001,-0.001,0.001,0.001,-0.001,-0.001,0,0,-0.001,0
844,0,0,0.003,0,0,0,-0.001,-0.001,0.001,0.001,-0.001,-0.001,0,0,-0.001,0
845,0,0,0.003,0.001,0,0,-0.001,-0.001,0.001,0.001,-0.001,-0.001,0,0,-0.001,0
846,0,0,0.003,0.001,0,0,-0.001,-0.001,0.001,0.001,-0.001,-0.001,0,0,-0.001,0
847,0,0,0.003,0.001,0,0,-0.001,-0.001,0.001,0.001,-0.001,-0.001,0,0,-0.001,0
848,0,0,0.003,0.001,0,0,-0.001,-0.001,0.001,0.001,-0.001,-0.001,0,0,-0.001,0
849,0,0,0.003,0.001,0,0,-0.001,-0.001,0.001,0.001,-0.001,-0.001,0,0,-0.001,0
850,0,0,0.003,0.001,0,0,-0.001,-0.001,0.001,0.001,-0.001,-0.001,0,0,-0.001,0
