Wavelength nm.,MilliQ,CP2_16apr25_BOTR1,CP1_16apr25_01R2,CP1_16apr25_01R1,CC3_16apr25_01R1,CS1_16apr25_01R1,CC3_16apr25_BOTR1,CP2_16apr25_01R1,CS2_16apr25_01R1,CC4_16apr25_6R2,CC3_16apr25_15R1,CC4_16apr25_BOTR2,CC2_16apr25_01R1
190,0.001,0.354,0.163,0.178,0.418,0.144,0.432,0.43,0.232,0.429,0.434,0.461,0.411
191,0,0.326,0.154,0.165,0.383,0.136,0.394,0.391,0.219,0.39,0.398,0.42,0.375
192,0.001,0.303,0.146,0.155,0.35,0.128,0.364,0.356,0.202,0.354,0.364,0.386,0.343
193,0.002,0.274,0.137,0.143,0.314,0.121,0.329,0.32,0.181,0.315,0.326,0.351,0.307
194,0.001,0.25,0.13,0.135,0.285,0.115,0.301,0.292,0.161,0.286,0.295,0.323,0.28
195,0.001,0.229,0.123,0.127,0.259,0.109,0.276,0.266,0.145,0.259,0.266,0.298,0.254
196,0.001,0.212,0.118,0.122,0.238,0.104,0.255,0.246,0.133,0.238,0.243,0.277,0.232
197,0.001,0.197,0.114,0.116,0.219,0.101,0.238,0.226,0.126,0.218,0.224,0.26,0.214
198,0.001,0.184,0.109,0.111,0.203,0.097,0.222,0.211,0.12,0.201,0.206,0.245,0.197
199,0.002,0.174,0.105,0.108,0.188,0.094,0.209,0.197,0.116,0.187,0.192,0.232,0.184
200,0.002,0.165,0.103,0.105,0.177,0.093,0.198,0.186,0.113,0.175,0.18,0.221,0.174
201,0.001,0.156,0.1,0.102,0.167,0.09,0.187,0.175,0.11,0.164,0.17,0.211,0.164
202,0.001,0.149,0.097,0.099,0.158,0.088,0.179,0.166,0.108,0.155,0.161,0.203,0.155
203,0.002,0.144,0.095,0.097,0.151,0.087,0.171,0.159,0.106,0.148,0.153,0.196,0.148
204,0.002,0.138,0.093,0.095,0.144,0.085,0.164,0.153,0.104,0.141,0.146,0.189,0.141
205,0.001,0.133,0.091,0.093,0.138,0.083,0.157,0.146,0.102,0.136,0.139,0.183,0.136
206,0.001,0.129,0.089,0.091,0.133,0.082,0.152,0.141,0.1,0.131,0.135,0.177,0.131
207,0.001,0.126,0.088,0.089,0.129,0.08,0.147,0.137,0.098,0.127,0.13,0.173,0.127
208,0.001,0.122,0.087,0.088,0.125,0.079,0.143,0.133,0.097,0.123,0.126,0.168,0.123
209,0.001,0.119,0.084,0.086,0.122,0.077,0.138,0.128,0.094,0.119,0.122,0.163,0.119
210,0.001,0.116,0.083,0.084,0.118,0.076,0.134,0.125,0.091,0.116,0.119,0.157,0.116
211,0.001,0.113,0.081,0.082,0.115,0.075,0.13,0.121,0.089,0.113,0.116,0.152,0.113
212,0.001,0.111,0.079,0.081,0.112,0.073,0.126,0.118,0.087,0.11,0.113,0.147,0.11
213,0.001,0.108,0.078,0.079,0.11,0.072,0.123,0.115,0.084,0.107,0.11,0.142,0.107
214,0.001,0.106,0.077,0.077,0.107,0.07,0.12,0.113,0.082,0.105,0.107,0.137,0.104
215,0.001,0.103,0.075,0.076,0.104,0.069,0.117,0.11,0.08,0.103,0.105,0.133,0.102
216,0.001,0.101,0.074,0.075,0.102,0.068,0.114,0.107,0.078,0.1,0.102,0.128,0.1
217,0.001,0.099,0.072,0.073,0.1,0.067,0.112,0.105,0.076,0.098,0.1,0.123,0.098
218,0.001,0.097,0.071,0.072,0.097,0.065,0.109,0.102,0.073,0.096,0.098,0.119,0.095
219,0.001,0.095,0.07,0.071,0.096,0.064,0.107,0.1,0.07,0.094,0.097,0.115,0.094
220,0.001,0.094,0.069,0.07,0.094,0.064,0.105,0.099,0.067,0.092,0.095,0.111,0.092
221,0.001,0.092,0.068,0.069,0.092,0.063,0.103,0.096,0.064,0.091,0.093,0.107,0.09
222,0.001,0.09,0.067,0.068,0.09,0.062,0.101,0.095,0.063,0.089,0.091,0.103,0.089
223,0.001,0.089,0.066,0.066,0.089,0.061,0.099,0.093,0.062,0.087,0.09,0.1,0.087
224,0.001,0.087,0.065,0.065,0.087,0.06,0.097,0.091,0.06,0.086,0.088,0.096,0.085
225,0.001,0.086,0.064,0.064,0.086,0.059,0.095,0.09,0.059,0.084,0.087,0.093,0.084
226,0.001,0.084,0.063,0.063,0.084,0.058,0.093,0.088,0.058,0.083,0.085,0.09,0.082
227,0.001,0.083,0.062,0.062,0.083,0.057,0.092,0.086,0.057,0.081,0.084,0.087,0.081
228,0.001,0.082,0.061,0.061,0.081,0.057,0.09,0.085,0.056,0.08,0.082,0.085,0.079
229,0,0.08,0.06,0.06,0.08,0.055,0.088,0.083,0.055,0.078,0.081,0.082,0.078
230,0,0.079,0.059,0.059,0.078,0.055,0.086,0.081,0.054,0.077,0.079,0.08,0.076
231,0,0.077,0.058,0.058,0.077,0.054,0.085,0.08,0.053,0.076,0.078,0.078,0.075
232,0,0.076,0.057,0.057,0.076,0.053,0.083,0.078,0.052,0.074,0.076,0.076,0.074
233,0,0.075,0.056,0.057,0.074,0.052,0.082,0.077,0.052,0.073,0.075,0.074,0.073
234,0,0.074,0.056,0.056,0.073,0.052,0.081,0.076,0.051,0.072,0.074,0.073,0.072
235,0,0.072,0.055,0.055,0.072,0.051,0.079,0.074,0.05,0.071,0.073,0.071,0.07
236,0,0.071,0.054,0.054,0.071,0.05,0.078,0.073,0.049,0.07,0.072,0.07,0.069
237,0,0.07,0.053,0.053,0.07,0.049,0.076,0.072,0.049,0.069,0.071,0.068,0.068
238,0,0.069,0.053,0.053,0.069,0.049,0.075,0.071,0.048,0.068,0.07,0.067,0.067
239,0,0.068,0.052,0.052,0.068,0.048,0.074,0.07,0.047,0.067,0.069,0.066,0.066
240,0,0.067,0.051,0.051,0.067,0.047,0.073,0.069,0.046,0.066,0.068,0.065,0.065
241,0,0.067,0.05,0.051,0.066,0.047,0.072,0.068,0.046,0.065,0.067,0.064,0.064
242,0,0.066,0.05,0.05,0.065,0.046,0.071,0.067,0.045,0.064,0.066,0.063,0.064
243,0,0.065,0.049,0.049,0.065,0.045,0.07,0.066,0.045,0.063,0.065,0.062,0.063
244,0,0.064,0.048,0.049,0.064,0.045,0.069,0.065,0.044,0.062,0.065,0.061,0.062
245,0,0.063,0.048,0.048,0.063,0.044,0.068,0.065,0.044,0.062,0.064,0.06,0.061
246,0,0.063,0.047,0.048,0.063,0.044,0.067,0.064,0.043,0.061,0.063,0.06,0.061
247,0,0.062,0.047,0.047,0.062,0.043,0.066,0.063,0.043,0.06,0.063,0.059,0.06
248,0,0.061,0.046,0.046,0.061,0.043,0.065,0.063,0.042,0.06,0.062,0.058,0.059
249,0,0.061,0.046,0.046,0.061,0.042,0.065,0.062,0.041,0.059,0.061,0.058,0.059
250,0,0.06,0.045,0.046,0.06,0.042,0.064,0.061,0.041,0.059,0.061,0.057,0.058
251,0,0.06,0.045,0.045,0.06,0.042,0.064,0.061,0.041,0.058,0.061,0.057,0.058
252,0,0.059,0.044,0.045,0.06,0.041,0.063,0.06,0.04,0.058,0.06,0.056,0.057
253,0,0.059,0.044,0.044,0.059,0.041,0.063,0.06,0.04,0.057,0.06,0.056,0.057
254,0,0.058,0.044,0.044,0.058,0.04,0.062,0.059,0.039,0.057,0.059,0.055,0.056
255,0,0.058,0.043,0.044,0.058,0.04,0.062,0.059,0.039,0.056,0.058,0.055,0.056
256,0,0.057,0.043,0.043,0.058,0.039,0.061,0.059,0.039,0.056,0.058,0.054,0.055
257,0,0.057,0.042,0.043,0.057,0.039,0.061,0.058,0.038,0.055,0.057,0.054,0.055
258,0,0.056,0.042,0.043,0.057,0.039,0.06,0.058,0.038,0.055,0.057,0.053,0.054
259,0,0.056,0.042,0.042,0.056,0.038,0.06,0.057,0.038,0.055,0.057,0.053,0.054
260,0,0.056,0.041,0.042,0.056,0.038,0.059,0.057,0.038,0.054,0.056,0.052,0.054
261,0.001,0.055,0.041,0.042,0.055,0.038,0.059,0.056,0.037,0.054,0.056,0.052,0.053
262,0.001,0.055,0.041,0.041,0.055,0.038,0.058,0.056,0.037,0.053,0.055,0.052,0.053
263,0,0.054,0.04,0.041,0.054,0.037,0.058,0.055,0.036,0.053,0.054,0.051,0.052
264,0,0.053,0.04,0.04,0.053,0.037,0.057,0.055,0.036,0.052,0.054,0.05,0.052
265,0,0.053,0.04,0.04,0.053,0.036,0.057,0.054,0.036,0.051,0.053,0.05,0.051
266,0,0.052,0.039,0.04,0.052,0.036,0.056,0.053,0.035,0.051,0.053,0.049,0.05
267,0,0.052,0.039,0.039,0.052,0.036,0.055,0.053,0.035,0.05,0.052,0.049,0.05
268,0.001,0.051,0.039,0.039,0.051,0.035,0.055,0.052,0.034,0.049,0.052,0.048,0.049
269,0,0.05,0.038,0.038,0.05,0.035,0.054,0.051,0.034,0.049,0.051,0.047,0.048
270,0,0.05,0.038,0.038,0.05,0.035,0.053,0.051,0.034,0.048,0.05,0.047,0.048
271,0,0.049,0.037,0.038,0.049,0.034,0.053,0.05,0.033,0.047,0.049,0.046,0.047
272,0,0.049,0.037,0.037,0.048,0.034,0.052,0.05,0.033,0.047,0.049,0.045,0.046
273,0,0.048,0.036,0.037,0.048,0.033,0.051,0.049,0.032,0.046,0.048,0.044,0.045
274,0,0.047,0.036,0.037,0.047,0.033,0.05,0.048,0.032,0.045,0.047,0.044,0.045
275,0,0.047,0.035,0.036,0.046,0.033,0.05,0.047,0.032,0.044,0.046,0.043,0.044
276,0,0.046,0.035,0.035,0.045,0.032,0.049,0.046,0.031,0.044,0.046,0.042,0.043
277,0,0.045,0.035,0.035,0.044,0.032,0.048,0.046,0.031,0.043,0.045,0.042,0.043
278,0,0.044,0.034,0.035,0.044,0.031,0.048,0.045,0.03,0.042,0.044,0.041,0.042
279,0,0.044,0.034,0.035,0.043,0.031,0.047,0.044,0.03,0.041,0.043,0.041,0.041
280,0,0.043,0.033,0.034,0.042,0.031,0.046,0.043,0.029,0.04,0.043,0.04,0.04
281,0,0.042,0.033,0.033,0.041,0.03,0.045,0.042,0.029,0.04,0.042,0.039,0.039
282,0,0.042,0.033,0.033,0.04,0.03,0.044,0.042,0.029,0.039,0.041,0.038,0.039
283,0,0.041,0.032,0.032,0.04,0.029,0.044,0.041,0.028,0.038,0.04,0.037,0.038
284,0,0.04,0.032,0.032,0.039,0.029,0.043,0.04,0.028,0.037,0.039,0.036,0.037
285,0,0.04,0.031,0.032,0.038,0.028,0.042,0.039,0.027,0.037,0.039,0.036,0.036
286,0,0.039,0.031,0.031,0.037,0.028,0.041,0.039,0.027,0.036,0.038,0.035,0.035
287,0,0.038,0.031,0.031,0.036,0.028,0.04,0.038,0.027,0.035,0.037,0.034,0.034
288,0,0.037,0.03,0.031,0.036,0.027,0.04,0.037,0.026,0.034,0.036,0.034,0.034
289,0,0.037,0.03,0.03,0.035,0.027,0.039,0.036,0.026,0.034,0.036,0.033,0.033
290,0,0.036,0.029,0.03,0.034,0.027,0.038,0.035,0.025,0.033,0.035,0.032,0.033
291,0,0.035,0.029,0.029,0.034,0.026,0.037,0.035,0.025,0.032,0.034,0.032,0.032
292,0,0.035,0.028,0.029,0.033,0.026,0.037,0.034,0.025,0.032,0.033,0.031,0.031
293,0,0.034,0.028,0.028,0.032,0.025,0.036,0.033,0.024,0.031,0.032,0.03,0.03
294,0,0.033,0.028,0.028,0.031,0.025,0.035,0.033,0.024,0.03,0.032,0.03,0.03
295,0,0.033,0.027,0.027,0.031,0.025,0.034,0.032,0.023,0.029,0.031,0.029,0.029
296,0,0.032,0.027,0.027,0.03,0.024,0.033,0.031,0.023,0.029,0.03,0.029,0.028
297,0,0.032,0.027,0.027,0.029,0.024,0.033,0.03,0.023,0.028,0.03,0.028,0.028
298,0,0.031,0.026,0.026,0.028,0.024,0.032,0.03,0.023,0.028,0.029,0.027,0.027
299,0,0.031,0.026,0.026,0.028,0.023,0.032,0.029,0.022,0.027,0.029,0.027,0.026
300,0,0.03,0.025,0.025,0.027,0.023,0.031,0.029,0.022,0.027,0.028,0.026,0.026
301,0,0.03,0.025,0.025,0.027,0.023,0.03,0.028,0.021,0.026,0.028,0.026,0.025
302,0,0.029,0.025,0.025,0.026,0.022,0.03,0.028,0.021,0.026,0.027,0.025,0.025
303,0,0.028,0.024,0.025,0.026,0.022,0.029,0.027,0.021,0.025,0.026,0.025,0.024
304,0,0.028,0.024,0.024,0.025,0.022,0.029,0.026,0.02,0.024,0.026,0.024,0.024
305,0,0.028,0.024,0.024,0.025,0.021,0.028,0.026,0.02,0.024,0.025,0.024,0.023
306,0,0.027,0.024,0.023,0.024,0.021,0.028,0.025,0.02,0.023,0.025,0.023,0.023
307,0,0.026,0.023,0.023,0.023,0.021,0.027,0.024,0.02,0.023,0.024,0.022,0.022
308,0,0.026,0.023,0.023,0.023,0.02,0.026,0.024,0.019,0.022,0.024,0.022,0.022
309,0,0.025,0.022,0.023,0.022,0.02,0.026,0.024,0.019,0.022,0.023,0.022,0.021
310,0,0.025,0.022,0.022,0.022,0.02,0.025,0.023,0.019,0.022,0.023,0.021,0.021
311,0,0.025,0.022,0.022,0.022,0.02,0.025,0.023,0.018,0.021,0.022,0.021,0.02
312,0.001,0.025,0.022,0.022,0.021,0.019,0.025,0.022,0.018,0.021,0.022,0.021,0.02
313,0,0.024,0.021,0.021,0.021,0.019,0.024,0.022,0.018,0.02,0.021,0.02,0.02
314,0,0.024,0.021,0.021,0.02,0.019,0.024,0.021,0.018,0.02,0.021,0.02,0.019
315,0,0.023,0.021,0.021,0.02,0.018,0.023,0.021,0.017,0.019,0.021,0.02,0.019
316,0,0.023,0.02,0.02,0.019,0.018,0.023,0.02,0.017,0.019,0.02,0.019,0.019
317,0,0.023,0.02,0.02,0.019,0.018,0.022,0.02,0.017,0.019,0.02,0.019,0.018
318,0,0.022,0.02,0.019,0.018,0.018,0.022,0.019,0.016,0.018,0.019,0.018,0.018
319,0,0.021,0.02,0.019,0.018,0.017,0.021,0.019,0.016,0.018,0.019,0.018,0.017
320,0,0.021,0.02,0.019,0.018,0.017,0.021,0.019,0.016,0.018,0.019,0.018,0.017
321,0,0.021,0.019,0.019,0.018,0.017,0.021,0.019,0.016,0.017,0.018,0.017,0.017
322,0,0.021,0.019,0.019,0.017,0.017,0.02,0.018,0.016,0.017,0.018,0.017,0.016
323,0,0.02,0.019,0.019,0.017,0.016,0.02,0.018,0.015,0.017,0.018,0.017,0.016
324,0,0.02,0.019,0.018,0.017,0.017,0.02,0.018,0.016,0.016,0.017,0.017,0.016
325,0,0.02,0.019,0.018,0.017,0.016,0.02,0.018,0.015,0.016,0.017,0.016,0.016
326,0.001,0.019,0.018,0.018,0.016,0.016,0.019,0.017,0.015,0.016,0.017,0.016,0.015
327,0,0.019,0.018,0.018,0.016,0.016,0.019,0.017,0.015,0.016,0.017,0.016,0.015
328,0.001,0.019,0.018,0.017,0.016,0.016,0.018,0.017,0.015,0.015,0.016,0.015,0.015
329,0.001,0.019,0.018,0.017,0.016,0.015,0.018,0.017,0.015,0.015,0.016,0.015,0.015
330,0,0.019,0.017,0.017,0.015,0.015,0.018,0.016,0.014,0.015,0.016,0.015,0.014
331,0,0.018,0.017,0.017,0.015,0.015,0.018,0.016,0.014,0.014,0.015,0.015,0.014
332,0,0.018,0.017,0.016,0.014,0.015,0.017,0.015,0.014,0.014,0.015,0.014,0.014
333,0,0.018,0.017,0.016,0.014,0.015,0.017,0.015,0.014,0.014,0.015,0.014,0.013
334,0.001,0.018,0.017,0.016,0.014,0.014,0.017,0.015,0.014,0.014,0.015,0.014,0.014
335,0,0.017,0.016,0.016,0.014,0.014,0.016,0.015,0.013,0.013,0.014,0.014,0.013
336,0.001,0.017,0.016,0.016,0.013,0.014,0.016,0.014,0.013,0.013,0.014,0.013,0.013
337,0.001,0.017,0.016,0.015,0.013,0.014,0.016,0.014,0.013,0.013,0.014,0.013,0.012
338,0.001,0.016,0.016,0.015,0.013,0.014,0.016,0.014,0.013,0.013,0.014,0.013,0.012
339,0.001,0.016,0.016,0.015,0.013,0.014,0.015,0.014,0.013,0.013,0.013,0.013,0.012
340,0.002,0.017,0.017,0.016,0.014,0.015,0.016,0.015,0.014,0.014,0.015,0.014,0.013
341,0.001,0.016,0.015,0.015,0.012,0.013,0.015,0.013,0.012,0.012,0.013,0.013,0.012
342,0.001,0.015,0.015,0.014,0.012,0.013,0.014,0.012,0.011,0.012,0.012,0.012,0.011
343,0.001,0.015,0.015,0.014,0.011,0.012,0.014,0.012,0.011,0.012,0.012,0.012,0.011
344,0.001,0.014,0.014,0.014,0.011,0.012,0.014,0.012,0.011,0.011,0.012,0.011,0.011
345,0.001,0.014,0.014,0.014,0.011,0.012,0.013,0.012,0.011,0.011,0.012,0.011,0.01
346,0.001,0.014,0.014,0.013,0.011,0.012,0.013,0.011,0.011,0.01,0.011,0.011,0.01
347,0.001,0.013,0.013,0.013,0.01,0.011,0.013,0.011,0.011,0.01,0.011,0.01,0.01
348,0.001,0.013,0.013,0.013,0.01,0.012,0.013,0.011,0.01,0.01,0.011,0.01,0.01
349,0.001,0.013,0.013,0.013,0.01,0.011,0.013,0.011,0.011,0.01,0.011,0.01,0.01
350,0.001,0.013,0.013,0.013,0.01,0.011,0.012,0.011,0.01,0.01,0.011,0.01,0.009
351,0.001,0.013,0.012,0.013,0.01,0.011,0.012,0.011,0.01,0.01,0.011,0.01,0.009
352,0.001,0.013,0.013,0.012,0.01,0.011,0.012,0.011,0.01,0.01,0.011,0.01,0.009
353,0.001,0.012,0.012,0.012,0.009,0.011,0.012,0.01,0.01,0.009,0.01,0.009,0.009
354,0.001,0.012,0.012,0.012,0.009,0.01,0.012,0.01,0.01,0.009,0.01,0.009,0.009
355,0.001,0.012,0.012,0.012,0.009,0.01,0.012,0.01,0.009,0.009,0.01,0.009,0.009
356,0.001,0.012,0.012,0.012,0.009,0.01,0.011,0.01,0.009,0.009,0.01,0.009,0.008
357,0.001,0.012,0.012,0.012,0.009,0.01,0.011,0.009,0.009,0.009,0.009,0.009,0.008
358,0.001,0.011,0.012,0.011,0.009,0.01,0.011,0.009,0.009,0.008,0.009,0.009,0.008
359,0.001,0.011,0.011,0.011,0.008,0.01,0.011,0.009,0.009,0.008,0.009,0.008,0.008
360,0.001,0.011,0.011,0.011,0.008,0.009,0.01,0.009,0.008,0.008,0.009,0.008,0.008
361,0.001,0.01,0.011,0.011,0.008,0.009,0.01,0.009,0.008,0.008,0.009,0.008,0.007
362,0.001,0.01,0.011,0.01,0.008,0.009,0.01,0.009,0.008,0.008,0.009,0.008,0.007
363,0.001,0.01,0.011,0.01,0.008,0.009,0.01,0.008,0.008,0.008,0.008,0.008,0.007
364,0.001,0.01,0.01,0.01,0.007,0.009,0.01,0.008,0.008,0.008,0.008,0.008,0.007
365,0.001,0.01,0.01,0.01,0.007,0.009,0.01,0.008,0.008,0.007,0.008,0.008,0.007
366,0.001,0.01,0.01,0.01,0.007,0.009,0.01,0.008,0.008,0.007,0.008,0.008,0.007
367,0.001,0.01,0.01,0.01,0.007,0.008,0.009,0.008,0.008,0.007,0.008,0.007,0.007
368,0.001,0.009,0.01,0.009,0.007,0.008,0.009,0.008,0.007,0.007,0.007,0.007,0.006
369,0.001,0.009,0.01,0.009,0.007,0.008,0.009,0.007,0.007,0.007,0.007,0.007,0.006
370,0.001,0.009,0.01,0.009,0.007,0.008,0.009,0.008,0.007,0.007,0.007,0.007,0.006
371,0.001,0.009,0.01,0.009,0.007,0.008,0.009,0.007,0.007,0.007,0.007,0.007,0.006
372,0.001,0.009,0.009,0.009,0.006,0.008,0.008,0.007,0.007,0.007,0.007,0.007,0.006
373,0.001,0.009,0.009,0.009,0.006,0.008,0.008,0.007,0.007,0.006,0.007,0.007,0.006
374,0.001,0.008,0.009,0.009,0.006,0.008,0.008,0.007,0.007,0.006,0.006,0.006,0.005
375,0.001,0.008,0.009,0.009,0.006,0.007,0.008,0.007,0.007,0.006,0.007,0.006,0.005
376,0.001,0.008,0.009,0.009,0.006,0.007,0.008,0.007,0.006,0.006,0.006,0.006,0.005
377,0.001,0.008,0.009,0.009,0.006,0.007,0.008,0.006,0.006,0.006,0.006,0.006,0.005
378,0.001,0.008,0.009,0.009,0.006,0.007,0.008,0.007,0.006,0.006,0.006,0.006,0.005
379,0.001,0.008,0.008,0.008,0.006,0.007,0.007,0.006,0.006,0.006,0.006,0.006,0.005
380,0.001,0.008,0.008,0.008,0.006,0.007,0.007,0.006,0.006,0.005,0.006,0.006,0.005
381,0.001,0.008,0.008,0.008,0.006,0.007,0.007,0.006,0.006,0.005,0.006,0.006,0.005
382,0.001,0.008,0.008,0.008,0.005,0.007,0.007,0.006,0.006,0.005,0.006,0.005,0.005
383,0.001,0.008,0.008,0.008,0.005,0.007,0.007,0.006,0.006,0.005,0.006,0.005,0.005
384,0.001,0.007,0.008,0.008,0.005,0.006,0.007,0.006,0.006,0.005,0.006,0.005,0.004
385,0.001,0.007,0.008,0.008,0.005,0.006,0.007,0.006,0.006,0.005,0.005,0.005,0.004
386,0.001,0.007,0.008,0.008,0.005,0.006,0.007,0.006,0.006,0.005,0.006,0.005,0.004
387,0.001,0.007,0.008,0.008,0.005,0.006,0.007,0.006,0.006,0.005,0.005,0.005,0.004
388,0.001,0.007,0.008,0.008,0.005,0.006,0.007,0.006,0.005,0.005,0.005,0.005,0.004
389,0.001,0.007,0.007,0.007,0.005,0.006,0.006,0.005,0.005,0.005,0.005,0.005,0.004
390,0.001,0.007,0.007,0.007,0.005,0.006,0.006,0.005,0.005,0.004,0.005,0.005,0.004
391,0.001,0.007,0.007,0.007,0.005,0.006,0.006,0.005,0.005,0.004,0.005,0.004,0.004
392,0.001,0.006,0.007,0.007,0.004,0.006,0.006,0.005,0.005,0.004,0.005,0.004,0.004
393,0.001,0.006,0.007,0.007,0.004,0.006,0.006,0.005,0.005,0.004,0.005,0.004,0.004
394,0.001,0.006,0.007,0.007,0.004,0.006,0.006,0.005,0.005,0.004,0.005,0.004,0.004
395,0.001,0.006,0.007,0.007,0.004,0.006,0.006,0.005,0.005,0.004,0.005,0.004,0.004
396,0.001,0.006,0.007,0.006,0.004,0.005,0.005,0.004,0.005,0.004,0.004,0.004,0.003
397,0.001,0.006,0.007,0.006,0.004,0.005,0.005,0.004,0.005,0.004,0.004,0.004,0.003
398,0.001,0.006,0.006,0.006,0.004,0.005,0.005,0.004,0.004,0.004,0.004,0.004,0.003
399,0.001,0.005,0.006,0.006,0.004,0.005,0.005,0.004,0.004,0.004,0.004,0.004,0.003
400,0.001,0.005,0.006,0.006,0.004,0.005,0.005,0.004,0.004,0.004,0.004,0.004,0.003
401,0.001,0.005,0.006,0.006,0.004,0.005,0.005,0.004,0.004,0.003,0.004,0.004,0.003
402,0.001,0.005,0.006,0.006,0.004,0.005,0.005,0.004,0.004,0.003,0.004,0.004,0.003
403,0.001,0.005,0.006,0.006,0.004,0.005,0.005,0.004,0.004,0.003,0.004,0.004,0.003
404,0.001,0.005,0.006,0.006,0.003,0.005,0.005,0.004,0.004,0.003,0.004,0.003,0.003
405,0.001,0.005,0.006,0.005,0.003,0.005,0.004,0.004,0.004,0.003,0.003,0.003,0.003
406,0.001,0.005,0.006,0.005,0.003,0.005,0.004,0.004,0.004,0.003,0.003,0.003,0.003
407,0.001,0.005,0.006,0.005,0.003,0.005,0.004,0.004,0.004,0.003,0.003,0.003,0.003
408,0.001,0.005,0.005,0.005,0.003,0.005,0.004,0.003,0.004,0.003,0.003,0.003,0.002
409,0.001,0.005,0.005,0.005,0.003,0.004,0.004,0.003,0.004,0.003,0.003,0.003,0.002
410,0.001,0.005,0.005,0.005,0.003,0.004,0.004,0.003,0.004,0.003,0.003,0.003,0.002
411,0.001,0.005,0.005,0.005,0.003,0.004,0.004,0.003,0.004,0.003,0.003,0.003,0.002
412,0.001,0.004,0.005,0.005,0.003,0.004,0.004,0.003,0.003,0.003,0.003,0.003,0.002
413,0.001,0.004,0.005,0.005,0.003,0.004,0.004,0.003,0.003,0.003,0.003,0.003,0.002
414,0.001,0.004,0.005,0.005,0.003,0.004,0.004,0.003,0.003,0.003,0.003,0.003,0.002
415,0.001,0.004,0.005,0.005,0.003,0.004,0.004,0.003,0.003,0.003,0.003,0.003,0.002
416,0.001,0.004,0.005,0.005,0.003,0.004,0.004,0.003,0.004,0.003,0.003,0.003,0.002
417,0.001,0.004,0.005,0.005,0.003,0.004,0.004,0.003,0.003,0.002,0.003,0.003,0.002
418,0.001,0.004,0.005,0.005,0.003,0.004,0.004,0.003,0.003,0.002,0.003,0.002,0.002
419,0.001,0.004,0.005,0.005,0.003,0.004,0.004,0.003,0.003,0.002,0.003,0.002,0.002
420,0.001,0.004,0.005,0.005,0.003,0.004,0.004,0.003,0.003,0.002,0.003,0.002,0.002
421,0.001,0.004,0.005,0.005,0.002,0.004,0.004,0.003,0.003,0.002,0.003,0.002,0.002
422,0.001,0.004,0.005,0.004,0.002,0.004,0.004,0.003,0.003,0.002,0.002,0.002,0.002
423,0.001,0.004,0.005,0.004,0.002,0.004,0.003,0.003,0.003,0.002,0.002,0.002,0.002
424,0.001,0.004,0.005,0.004,0.002,0.003,0.003,0.003,0.003,0.002,0.002,0.002,0.001
425,0.001,0.004,0.004,0.004,0.002,0.003,0.003,0.002,0.003,0.002,0.002,0.002,0.001
426,0.001,0.004,0.004,0.004,0.002,0.003,0.003,0.002,0.003,0.002,0.002,0.002,0.001
427,0.001,0.004,0.004,0.004,0.002,0.004,0.003,0.002,0.003,0.002,0.002,0.002,0.001
428,0.001,0.004,0.004,0.004,0.002,0.003,0.003,0.002,0.003,0.002,0.002,0.002,0.001
429,0,0.003,0.004,0.004,0.002,0.003,0.003,0.002,0.002,0.002,0.002,0.002,0.001
430,0.001,0.003,0.004,0.004,0.002,0.003,0.003,0.002,0.002,0.002,0.002,0.002,0.001
431,0.001,0.003,0.004,0.004,0.002,0.003,0.003,0.002,0.002,0.002,0.002,0.002,0.001
432,0.001,0.003,0.004,0.004,0.002,0.003,0.003,0.002,0.002,0.002,0.002,0.002,0.001
433,0.001,0.003,0.004,0.004,0.002,0.003,0.003,0.002,0.002,0.002,0.002,0.002,0.001
434,0.001,0.003,0.004,0.004,0.002,0.003,0.003,0.002,0.002,0.002,0.002,0.002,0.001
435,0.001,0.003,0.004,0.004,0.002,0.003,0.003,0.002,0.002,0.001,0.002,0.002,0.001
436,0.001,0.003,0.004,0.004,0.002,0.003,0.003,0.002,0.002,0.001,0.002,0.002,0.001
437,0.001,0.003,0.004,0.004,0.002,0.003,0.003,0.002,0.002,0.001,0.002,0.002,0.001
438,0.001,0.003,0.004,0.004,0.001,0.003,0.003,0.002,0.002,0.001,0.002,0.002,0.001
439,0.001,0.003,0.004,0.003,0.001,0.003,0.002,0.002,0.002,0.001,0.002,0.002,0.001
440,0,0.003,0.004,0.003,0.001,0.003,0.002,0.002,0.002,0.001,0.002,0.001,0.001
441,0.001,0.003,0.004,0.003,0.001,0.003,0.002,0.002,0.002,0.001,0.001,0.001,0.001
442,0,0.003,0.003,0.003,0.001,0.003,0.002,0.002,0.002,0.001,0.001,0.001,0.001
443,0,0.002,0.003,0.003,0.001,0.003,0.002,0.002,0.002,0.001,0.001,0.001,0.001
444,0,0.002,0.003,0.003,0.001,0.003,0.002,0.002,0.002,0.001,0.001,0.001,0.001
445,0,0.002,0.003,0.003,0.001,0.003,0.002,0.002,0.002,0.001,0.001,0.001,0.001
446,0.001,0.003,0.003,0.003,0.001,0.003,0.002,0.002,0.002,0.001,0.001,0.001,0.001
447,0.001,0.003,0.003,0.003,0.001,0.003,0.002,0.002,0.002,0.001,0.001,0.001,0.001
448,0,0.002,0.003,0.003,0.001,0.002,0.002,0.001,0.002,0.001,0.001,0.001,0.001
449,0.001,0.002,0.003,0.003,0.001,0.002,0.002,0.001,0.002,0.001,0.001,0.001,0.001
450,0.001,0.002,0.003,0.003,0.001,0.002,0.002,0.001,0.002,0.001,0.001,0.001,0.001
451,0.001,0.002,0.003,0.003,0.001,0.002,0.002,0.001,0.002,0.001,0.001,0.001,0
452,0.001,0.002,0.003,0.003,0.001,0.002,0.002,0.001,0.002,0.001,0.001,0.001,0
453,0.001,0.002,0.003,0.003,0.001,0.002,0.002,0.001,0.001,0.001,0.001,0.001,0
454,0.001,0.002,0.003,0.003,0.001,0.002,0.002,0.001,0.002,0.001,0.001,0.001,0.001
455,0.001,0.002,0.003,0.003,0.001,0.002,0.002,0.001,0.002,0.001,0.001,0.001,0
456,0.001,0.002,0.003,0.003,0.001,0.002,0.002,0.001,0.002,0.001,0.001,0.001,0
457,0.001,0.002,0.003,0.003,0.001,0.002,0.002,0.001,0.002,0.001,0.001,0.001,0
458,0.001,0.002,0.003,0.003,0.001,0.002,0.002,0.001,0.002,0.001,0.001,0.001,0
459,0.001,0.002,0.003,0.003,0.001,0.002,0.002,0.001,0.001,0.001,0.001,0.001,0
460,0.001,0.002,0.003,0.003,0.001,0.002,0.002,0.001,0.001,0.001,0.001,0.001,0
461,0.001,0.002,0.003,0.003,0.001,0.002,0.002,0.001,0.002,0.001,0.001,0.001,0
462,0.001,0.002,0.003,0.003,0.001,0.002,0.002,0.001,0.002,0.001,0.001,0.001,0
463,0.001,0.002,0.003,0.003,0.001,0.002,0.002,0.001,0.001,0.001,0.001,0.001,0
464,0.001,0.002,0.003,0.003,0.001,0.002,0.002,0.001,0.001,0.001,0.001,0.001,0
465,0.001,0.002,0.003,0.003,0.001,0.002,0.002,0.001,0.001,0.001,0.001,0.001,0
466,0.001,0.002,0.003,0.003,0.001,0.002,0.002,0.001,0.001,0.001,0.001,0.001,0
467,0.001,0.002,0.003,0.003,0.001,0.002,0.002,0.001,0.001,0.001,0.001,0.001,0
468,0.001,0.002,0.003,0.003,0.001,0.002,0.002,0.001,0.001,0.001,0.001,0.001,0
469,0.001,0.002,0.003,0.003,0.001,0.002,0.002,0.001,0.001,0.001,0.001,0.001,0
470,0.001,0.002,0.003,0.003,0.001,0.002,0.002,0.001,0.001,0.001,0.001,0.001,0
471,0.001,0.002,0.003,0.003,0.001,0.002,0.002,0.001,0.001,0.001,0.001,0.001,0
472,0.001,0.002,0.003,0.003,0.001,0.002,0.002,0.001,0.001,0.001,0.001,0.001,0
473,0.001,0.002,0.003,0.003,0.001,0.002,0.002,0.001,0.001,0.001,0.001,0.001,0
474,0.001,0.002,0.002,0.002,0.001,0.002,0.002,0.001,0.001,0,0.001,0.001,0
475,0.001,0.002,0.002,0.002,0.001,0.002,0.001,0.001,0.001,0,0.001,0.001,0
476,0.001,0.002,0.002,0.002,0.001,0.002,0.001,0.001,0.001,0,0.001,0.001,0
477,0.001,0.002,0.002,0.002,0.001,0.002,0.001,0.001,0.001,0,0.001,0.001,0
478,0.001,0.001,0.002,0.002,0,0.002,0.001,0.001,0.001,0,0.001,0,0
479,0.001,0.001,0.002,0.002,0,0.002,0.001,0.001,0.001,0,0.001,0.001,0
480,0.001,0.001,0.002,0.002,0,0.002,0.001,0.001,0.001,0,0.001,0.001,0
481,0.001,0.001,0.002,0.002,0,0.002,0.001,0.001,0.001,0,0.001,0,0
482,0.001,0.001,0.002,0.002,0,0.002,0.001,0.001,0.001,0,0,0,0
483,0.001,0.001,0.002,0.002,0,0.002,0.001,0.001,0.001,0,0,0,0
484,0,0.001,0.002,0.002,0,0.002,0.001,0.001,0.001,0,0,0.001,0
485,0.001,0.001,0.002,0.002,0,0.002,0.001,0.001,0.001,0,0,0.001,0
486,0.001,0.001,0.002,0.002,0,0.002,0.001,0,0.001,0,0,0,0
487,0.001,0.001,0.002,0.002,0,0.002,0.001,0,0.001,0,0,0,0
488,0.001,0.001,0.002,0.002,0,0.001,0.001,0,0.001,0,0,0,0
489,0,0.001,0.002,0.002,0,0.001,0.001,0,0.001,0,0,0,0
490,0,0.001,0.002,0.002,0,0.001,0.001,0,0.001,0,0,0,0
491,0,0.001,0.002,0.002,0,0.001,0.001,0,0.001,0,0,0,0
492,0,0.001,0.002,0.002,0,0.002,0.001,0,0.001,0,0,0,0
493,0,0.001,0.002,0.002,0,0.001,0.001,0,0,0,0,0,0
494,0,0.001,0.002,0.002,0,0.001,0.001,0,0,0,0,0,0
495,0.001,0.001,0.002,0.002,0,0.001,0.001,0,0.001,0,0,0,0
496,0.001,0.001,0.002,0.002,0,0.001,0.001,0,0.001,0,0,0,0
497,0.001,0.001,0.002,0.002,0,0.001,0.001,0,0,0,0,0,0
498,0.001,0.001,0.002,0.002,0,0.001,0.001,0,0,0,0,0,0
499,0.001,0.001,0.002,0.002,0,0.001,0.001,0,0,0,0,0,0
500,0.001,0.001,0.002,0.002,0,0.001,0.001,0,0,0,0,0,0
501,0.001,0.001,0.002,0.002,0,0.001,0.001,0,0,0,0,0,0
502,0.001,0.001,0.002,0.002,0,0.001,0.001,0,0.001,0,0,0,0
503,0.001,0.001,0.002,0.002,0,0.001,0.001,0,0,0,0,0,-0.001
504,0.001,0.001,0.002,0.002,0,0.001,0.001,0,0,0,0,0,-0.001
505,0.001,0.001,0.002,0.002,0,0.001,0.001,0,0,0,0,0,-0.001
506,0.001,0.001,0.002,0.002,0,0.001,0.001,0,0,0,0,0,-0.001
507,0.001,0.001,0.002,0.002,0,0.001,0.001,0,0,0,0,0,0
508,0.001,0.001,0.002,0.002,0,0.001,0.001,0,0,0,0,0,-0.001
509,0.001,0.001,0.001,0.002,0,0.001,0.001,0,0,0,0,0,-0.001
510,0.001,0.001,0.001,0.002,0,0.001,0.001,0,0,0,0,0,-0.001
511,0.001,0.001,0.001,0.002,0,0.001,0.001,0,0,0,0,0,-0.001
512,0.001,0.001,0.002,0.002,0,0.001,0.001,0,0,0,0,0,-0.001
513,0.001,0.001,0.001,0.002,0,0.001,0.001,0,0,0,0,0,-0.001
514,0.001,0.001,0.001,0.002,0,0.001,0.001,0,0,0,0,0,-0.001
515,0.001,0.001,0.001,0.002,0,0.001,0.001,0,0,0,0,0,-0.001
516,0.001,0.001,0.002,0.002,0,0.001,0.001,0,0,0,0,0,-0.001
517,0.001,0.001,0.001,0.002,0,0.001,0.001,0,0,0,0,0,-0.001
518,0.001,0.001,0.001,0.002,0,0.001,0.001,0,0,0,0,0,-0.001
519,0.001,0.001,0.001,0.002,0,0.001,0.001,0,0,0,0,0,-0.001
520,0.001,0.001,0.001,0.002,0,0.001,0.001,0,0,0,0,0,-0.001
521,0.001,0.001,0.001,0.002,0,0.001,0.001,0,0,0,0,0,-0.001
522,0.001,0.001,0.001,0.001,0,0.001,0.001,0,0,0,0,0,-0.001
523,0.001,0.001,0.001,0.001,0,0.001,0,0,0,0,0,0,-0.001
524,0.001,0.001,0.001,0.001,0,0.001,0.001,0,0,0,0,0,-0.001
525,0.001,0.001,0.001,0.001,0,0.001,0.001,0,0,0,0,0,-0.001
526,0.001,0.001,0.001,0.001,0,0.001,0.001,0,0,0,0,0,-0.001
527,0.001,0,0.001,0.001,0,0.001,0,0,0,0,0,0,-0.001
528,0,0,0.001,0.001,0,0.001,0,0,0,0,0,0,-0.001
529,0,0,0.001,0.001,0,0.001,0,0,0,0,0,0,-0.001
530,0,0,0.001,0.001,0,0.001,0,0,0,0,0,0,-0.001
531,0,0,0.001,0.001,0,0.001,0,0,0,0,0,0,-0.001
532,0,0,0.001,0.001,0,0.001,0,0,0,-0.001,0,0,-0.001
533,0,0,0.001,0.001,0,0.001,0,0,0,0,0,0,-0.001
534,0.001,0,0.001,0.001,0,0.001,0,0,0,0,0,0,-0.001
535,0.001,0.001,0.001,0.001,0,0.001,0.001,0,0,0,0,0,0
536,0.002,0.001,0.002,0.002,0.001,0.002,0.001,0.001,0.001,0.001,0.001,0.001,0
537,0.001,0,0.001,0.001,0,0.001,0.001,0,0,0,0,0,-0.001
538,0,0,0.001,0.001,0,0.001,0,0,0,0,0,0,-0.001
539,0,0,0.001,0.001,0,0.001,0,0,0,0,0,0,-0.001
540,0,0,0.001,0.001,0,0.001,0,0,0,0,0,0,-0.001
541,0,0,0.001,0.001,0,0.001,0,0,0,0,0,0,-0.001
542,0,0,0.001,0.001,0,0.001,0,0,0,-0.001,0,0,-0.001
543,0,0,0.001,0.001,0,0.001,0,0,0,-0.001,0,0,-0.001
544,0,0,0.001,0.001,0,0.001,0,0,0,-0.001,0,0,-0.001
545,0,0,0.001,0.001,0,0.001,0,0,0,-0.001,0,0,-0.001
546,0,0,0.001,0.001,0,0.001,0,0,0,-0.001,0,0,-0.001
547,0,0,0.001,0.001,0,0.001,0,0,0,-0.001,0,0,-0.001
548,0,0,0.001,0.001,0,0.001,0,0,0,-0.001,0,0,-0.001
549,0,0,0.001,0.001,0,0.001,0,0,0,-0.001,0,0,-0.001
550,0,0,0.001,0.001,0,0.001,0,0,0,-0.001,0,0,-0.001
551,0,0,0.001,0.001,0,0.001,0,0,0,-0.001,0,0,-0.001
552,0,0,0.001,0.001,0,0.001,0,0,0,-0.001,0,0,-0.001
553,0,0,0.001,0.001,0,0.001,0,0,0,-0.001,0,0,-0.001
554,0,0,0.001,0.001,0,0.001,0,0,0,-0.001,0,0,-0.001
555,0,0,0.001,0.001,0,0.001,0,0,0,-0.001,0,0,-0.001
556,0,0,0.001,0.001,0,0.001,0,0,0,-0.001,0,0,-0.001
557,0,0,0.001,0.001,0,0.001,0,0,0,-0.001,0,0,-0.001
558,0,0,0.001,0.001,0,0.001,0,0,0,-0.001,0,0,-0.001
559,0,0,0.001,0.001,0,0.001,0,0,0,-0.001,0,0,-0.001
560,0,0,0.001,0.001,0,0.001,0,0,0,-0.001,0,0,-0.001
561,0.001,0,0.001,0.001,0,0.001,0,0,0,-0.001,0,0,-0.001
562,0,0,0.001,0.001,0,0.001,0,0,0,-0.001,0,0,-0.001
563,0,0,0.001,0.001,0,0,0,0,0,-0.001,0,0,-0.001
564,0.001,0,0.001,0.001,0,0.001,0,0,0,-0.001,0,0,-0.001
565,0.001,0,0.001,0.001,0,0.001,0,0,0,-0.001,0,0,-0.001
566,0.001,0,0.001,0.001,0,0.001,0,0,0,-0.001,0,0,-0.001
567,0.001,0,0.001,0.001,0,0.001,0,0,0,-0.001,0,0,-0.001
568,0.001,0,0.001,0.001,0,0.001,0,0,0,-0.001,0,0,-0.001
569,0.001,0,0.001,0.001,0,0.001,0,0,0,-0.001,0,0,-0.001
570,0.001,0,0.001,0.001,0,0.001,0,0,0,-0.001,0,0,-0.001
571,0.001,0,0.001,0.001,0,0.001,0,0,0,-0.001,0,0,-0.001
572,0.001,0,0.001,0.001,0,0.001,0,0,0,-0.001,0,0,-0.001
573,0.001,0,0.001,0.001,0,0.001,0,0,0,-0.001,0,0,-0.001
574,0.001,0,0.001,0.001,0,0.001,0,0,0,-0.001,0,0,-0.001
575,0.001,0,0.001,0.001,0,0.001,0,0,0,-0.001,0,0,-0.001
576,0.001,0,0.001,0.001,0,0.001,0,0,0,-0.001,0,0,-0.001
577,0.001,0,0.001,0.001,0,0.001,0,0,0,-0.001,0,0,-0.001
578,0.001,0,0.001,0.001,0,0.001,0,0,0,-0.001,0,0,-0.001
579,0.001,0,0.001,0.001,0,0.001,0,0,0,-0.001,0,0,-0.001
580,0.001,0,0.001,0.001,0,0.001,0,0,0,-0.001,0,0,-0.001
581,0.001,0,0.001,0.001,0,0.001,0,0,0,0,0,0,-0.001
582,0.001,0,0.001,0.001,0,0.001,0,0,0,-0.001,0,0,-0.001
583,0.001,0,0.001,0.001,0,0.001,0,0,0,0,0,0,-0.001
584,0.001,0,0.001,0.001,0,0.001,0,0,0,-0.001,0,0,-0.001
585,0.001,0,0.001,0.001,0,0.001,0,0,0,-0.001,0,0,-0.001
586,0.001,0,0.001,0.001,0,0.001,0,0,0,-0.001,0,0,-0.001
587,0.001,0,0.001,0.001,0,0.001,0,0,0,-0.001,0,0,-0.001
588,0.001,0,0.001,0.001,0,0.001,0,0,0,-0.001,0,0,-0.001
589,0.001,0,0.001,0.001,0,0.001,0,0,0,-0.001,0,0,-0.001
590,0.001,0,0.001,0.001,0,0,0,0,0,-0.001,0,0,-0.001
591,0.001,0,0.001,0.001,0,0,0,0,0,-0.001,0,0,-0.001
592,0.001,0,0.001,0.001,0,0,0,0,0,-0.001,0,0,-0.001
593,0.001,0,0.001,0.001,0,0.001,0,0,0,-0.001,0,0,-0.001
594,0.001,0,0.001,0.001,0,0.001,0,0,0,-0.001,0,0,-0.001
595,0.001,0,0.001,0.001,0,0,0,0,0,-0.001,0,0,-0.001
596,0.001,0,0.001,0.001,0,0.001,0,0,0,-0.001,0,0,-0.001
597,0.001,0,0.001,0.001,0,0,0,0,0,-0.001,0,0,-0.001
598,0.001,0,0.001,0.001,0,0,0,0,0,-0.001,0,0,-0.001
599,0.001,0,0.001,0.001,0,0,0,0,0,-0.001,-0.001,-0.001,-0.001
600,0,0,0,0.001,0,0,0,0,0,-0.001,-0.001,-0.001,-0.001
601,0.001,0,0.001,0.001,0,0,0,0,0,-0.001,0,0,-0.001
602,0.001,0,0.001,0.001,0,0,0,0,0,-0.001,0,0,-0.001
603,0.001,0,0.001,0.001,0,0,0,0,0,-0.001,0,0,-0.001
604,0.001,0,0.001,0.001,0,0,0,0,0,-0.001,0,0,-0.001
605,0,0,0,0.001,0,0,0,0,0,-0.001,-0.001,0,-0.001
606,0.001,0,0.001,0.001,0,0,0,0,0,-0.001,-0.001,0,-0.001
607,0.001,0,0.001,0.001,0,0,0,0,0,-0.001,-0.001,0,-0.001
608,0,0,0,0.001,0,0,0,0,0,-0.001,-0.001,-0.001,-0.001
609,0,0,0,0.001,0,0,0,0,0,-0.001,-0.001,-0.001,-0.001
610,0,0,0,0.001,0,0,0,0,0,-0.001,-0.001,-0.001,-0.001
611,0,0,0,0.001,0,0,0,-0.001,0,-0.001,-0.001,-0.001,-0.001
612,0,0,0,0.001,0,0,0,0,0,-0.001,-0.001,-0.001,-0.001
613,0,0,0,0.001,0,0,0,0,0,-0.001,-0.001,-0.001,-0.001
614,0,0,0,0.001,0,0,0,-0.001,0,-0.001,-0.001,-0.001,-0.001
615,0,0,0,0.001,-0.001,0,0,-0.001,0,-0.001,-0.001,-0.001,-0.001
616,0,0,0,0.001,-0.001,0,0,-0.001,0,-0.001,-0.001,-0.001,-0.001
617,0,0,0,0.001,-0.001,0,0,-0.001,0,-0.001,-0.001,-0.001,-0.001
618,0,0,0,0.001,-0.001,0,0,-0.001,0,-0.001,-0.001,-0.001,-0.001
619,0,0,0,0.001,-0.001,0,0,-0.001,0,-0.001,-0.001,-0.001,-0.001
620,0,0,0,0.001,-0.001,0,0,-0.001,0,-0.001,-0.001,-0.001,-0.001
621,0,0,0,0.001,-0.001,0,0,-0.001,0,-0.001,-0.001,-0.001,-0.001
622,0,0,0,0.001,-0.001,0,0,-0.001,0,-0.001,-0.001,-0.001,-0.001
623,0,0,0,0.001,-0.001,0,0,-0.001,0,-0.001,-0.001,-0.001,-0.001
624,0,0,0,0.001,-0.001,0,0,-0.001,0,-0.001,-0.001,-0.001,-0.001
625,0,0,0,0.001,-0.001,0,0,-0.001,0,-0.001,-0.001,-0.001,-0.001
626,0,0,0,0,-0.001,0,0,-0.001,0,-0.001,-0.001,-0.001,-0.001
627,0,0,0,0.001,-0.001,0,0,-0.001,0,-0.001,-0.001,-0.001,-0.001
628,0,0,0,0.001,-0.001,0,0,-0.001,0,-0.001,-0.001,-0.001,-0.001
629,0,0,0,0.001,-0.001,0,0,-0.001,0,-0.001,-0.001,-0.001,-0.001
630,0,0,0,0,-0.001,0,0,-0.001,0,-0.001,-0.001,-0.001,-0.001
631,0,0,0,0,-0.001,0,0,-0.001,0,-0.001,-0.001,-0.001,-0.001
632,0,0,0,0.001,-0.001,0,0,-0.001,0,-0.001,-0.001,-0.001,-0.001
633,0,0,0,0,-0.001,0,0,-0.001,0,-0.001,-0.001,-0.001,-0.001
634,0,0,0,0,-0.001,0,0,-0.001,0,-0.001,-0.001,-0.001,-0.001
635,0,0,0,0,-0.001,0,0,-0.001,-0.001,-0.001,-0.001,-0.001,-0.001
636,0,0,0,0,-0.001,0,0,-0.001,-0.001,-0.001,-0.001,-0.001,-0.001
637,0,0,0,0,-0.001,0,0,-0.001,0,-0.001,-0.001,-0.001,-0.001
638,0,-0.001,0,0,-0.001,0,0,-0.001,0,-0.001,-0.001,-0.001,-0.001
639,0,-0.001,0,0,-0.001,0,0,-0.001,0,-0.001,-0.001,-0.001,-0.001
640,0,0,0,0,-0.001,0,0,-0.001,0,-0.001,-0.001,-0.001,-0.001
641,0,0,0,0,-0.001,0,0,-0.001,0,-0.001,-0.001,-0.001,-0.001
642,0,0,0,0,-0.001,0,0,-0.001,0,-0.001,-0.001,-0.001,-0.001
643,0,-0.001,0,0,-0.001,0,0,-0.001,-0.001,-0.001,-0.001,-0.001,-0.001
644,0,0,0,0,-0.001,0,0,-0.001,0,-0.001,-0.001,-0.001,-0.001
645,0,0,0,0,-0.001,0,0,-0.001,0,-0.001,-0.001,-0.001,-0.001
646,0,0,0,0,-0.001,0,0,-0.001,0,-0.001,-0.001,-0.001,-0.001
647,0,0,0,0,-0.001,0,0,-0.001,0,-0.001,-0.001,-0.001,-0.001
648,0,0,0,0,-0.001,0,0,-0.001,0,-0.001,-0.001,-0.001,-0.001
649,0,0,0,0,-0.001,0,0,-0.001,0,-0.001,-0.001,-0.001,-0.001
650,0,0,0,0,-0.001,0,0,-0.001,0,-0.001,-0.001,-0.001,-0.001
651,0,0,0,0,-0.001,0,0,-0.001,0,-0.001,-0.001,-0.001,-0.001
652,0,0,0,0,-0.001,0,0,-0.001,0,-0.001,-0.001,-0.001,-0.001
653,0,0,0,0,-0.001,0,0,-0.001,0,-0.001,-0.001,-0.001,-0.001
654,0,0,0,0,-0.001,0,0,-0.001,0,-0.001,-0.001,-0.001,-0.001
655,0,0,0,0,-0.001,0,0,-0.001,0,-0.001,-0.001,-0.001,-0.001
656,0.001,0,0,0.001,-0.001,0,0,-0.001,0,-0.001,-0.001,-0.001,-0.001
657,0,0,0,0,-0.001,0,0,-0.001,0,-0.001,-0.001,-0.001,-0.001
658,0,0,0,0,-0.001,0,0,-0.001,0,-0.001,-0.001,-0.001,-0.001
659,0,0,0,0,-0.001,0,0,-0.001,0,-0.001,-0.001,-0.001,-0.001
660,0,0,0,0,-0.001,0,0,-0.001,0,-0.001,-0.001,-0.001,-0.001
661,0,0,0,0,-0.001,0,0,-0.001,0,-0.001,-0.001,-0.001,-0.001
662,0,0,0,0,-0.001,0,0,-0.001,0,-0.001,-0.001,-0.001,-0.001
663,0,0,0,0,-0.001,0,0,-0.001,0,-0.001,-0.001,-0.001,-0.001
664,0,0,0,0,-0.001,0,0,-0.001,0,-0.001,-0.001,-0.001,-0.001
665,0,0,0,0,-0.001,0,0,-0.001,0,-0.001,-0.001,-0.001,-0.001
666,0.001,0,0,0.001,-0.001,0,0,-0.001,0,-0.001,-0.001,-0.001,-0.001
667,0.001,0,0,0.001,-0.001,0,0,-0.001,0,-0.001,-0.001,-0.001,-0.001
668,0,0,0,0,-0.001,0,0,-0.001,0,-0.001,-0.001,-0.001,-0.001
669,0.001,0,0,0.001,-0.001,0,0,-0.001,0,-0.001,-0.001,-0.001,-0.001
670,0.001,0,0,0.001,-0.001,0,0,-0.001,0,-0.001,-0.001,-0.001,-0.001
671,0.001,0,0,0,-0.001,0,0,-0.001,0,-0.001,-0.001,-0.001,-0.001
672,0.001,0,0,0,-0.001,0,0,-0.001,0,-0.001,-0.001,-0.001,-0.001
673,0.001,0,0,0,-0.001,0,0,-0.001,0,-0.001,-0.001,-0.001,-0.001
674,0.001,0,0,0,-0.001,0,0,-0.001,0,-0.001,-0.001,-0.001,-0.001
675,0.001,0,0,0,-0.001,0,0,-0.001,0,-0.001,-0.001,-0.001,-0.001
676,0,0,0,0,-0.001,0,0,-0.001,0,-0.001,-0.001,-0.001,-0.001
677,0,0,0,0,-0.001,0,0,-0.001,0,-0.001,-0.001,-0.001,-0.001
678,0.001,0,0,0,-0.001,0,0,-0.001,0,-0.001,-0.001,-0.001,-0.001
679,0,-0.001,0,0,-0.001,0,0,-0.001,0,-0.001,-0.001,-0.001,-0.001
680,0,0,0,0,-0.001,0,0,-0.001,0,-0.001,-0.001,-0.001,-0.001
681,0,0,0,0,-0.001,0,0,-0.001,0,-0.001,-0.001,-0.001,-0.001
682,0,0,0,0,-0.001,0,0,-0.001,0,-0.001,-0.001,-0.001,-0.001
683,0,0,0,0,-0.001,0,0,-0.001,0,-0.001,-0.001,-0.001,-0.001
684,0,0,0,0,-0.001,0,0,-0.001,0,-0.001,-0.001,-0.001,-0.001
685,0,0,0,0,-0.001,0,0,-0.001,0,-0.001,-0.001,-0.001,-0.001
686,0,0,0,0,-0.001,0,0,-0.001,0,-0.001,-0.001,-0.001,-0.001
687,0.001,0,0,0,-0.001,0,0,-0.001,0,-0.001,-0.001,-0.001,-0.001
688,0,0,0,0,-0.001,0,0,-0.001,0,-0.001,-0.001,-0.001,-0.001
689,0,0,0,0,-0.001,0,0,-0.001,0,-0.001,-0.001,-0.001,-0.001
690,0,-0.001,0,0,-0.001,0,0,-0.001,0,-0.001,-0.001,-0.001,-0.001
691,0,-0.001,0,0,-0.001,0,0,-0.001,0,-0.001,-0.001,-0.001,-0.001
692,0,0,0,0,-0.001,0,0,-0.001,0,-0.001,-0.001,-0.001,-0.001
693,0,0,0,0,-0.001,0,0,-0.001,0,-0.001,-0.001,-0.001,-0.001
694,0,0,0,0,-0.001,0,0,-0.001,0,-0.001,-0.001,-0.001,-0.001
695,0.001,0,0,0,-0.001,0,0,-0.001,0,-0.001,-0.001,-0.001,-0.001
696,0,0,0,0,-0.001,0,0,-0.001,0,-0.001,-0.001,-0.001,-0.001
697,0,-0.001,0,0,-0.001,0,0,-0.001,0,-0.001,-0.001,-0.001,-0.001
698,0,-0.001,0,0,-0.001,0,0,-0.001,0,-0.001,-0.001,-0.001,-0.001
699,0,-0.001,0,0,-0.001,0,0,-0.001,0,-0.001,-0.001,-0.001,-0.001
700,0,0,0,0,-0.001,0,0,-0.001,0,-0.001,-0.001,-0.001,-0.001
701,0,-0.001,0,0,-0.001,0,0,-0.001,0,-0.001,-0.001,-0.001,-0.001
702,0,-0.001,0,0,-0.001,0,0,-0.001,0,-0.001,-0.001,-0.001,-0.001
703,0,-0.001,0,0,-0.001,0,0,-0.001,0,-0.001,-0.001,-0.001,-0.001
704,0,-0.001,0,0,-0.001,0,0,-0.001,0,-0.001,-0.001,-0.001,-0.001
705,0,-0.001,0,0,-0.001,0,0,-0.001,0,-0.001,-0.001,-0.001,-0.001
706,0,0,0,0,-0.001,0,0,-0.001,0,-0.001,-0.001,-0.001,-0.001
707,0,-0.001,0,0,-0.001,0,0,-0.001,0,-0.001,-0.001,-0.001,-0.001
708,0,-0.001,0,0,-0.001,0,0,-0.001,0,-0.001,-0.001,-0.001,-0.001
709,0,-0.001,0,0,-0.001,0,0,-0.001,0,-0.001,-0.001,-0.001,-0.001
710,0,-0.001,0,0,-0.001,0,0,-0.001,0,-0.001,-0.001,-0.001,-0.001
711,0,-0.001,0,0,-0.001,0,0,-0.001,0,-0.001,-0.001,-0.001,-0.001
712,0,-0.001,0,0,-0.001,0,0,-0.001,0,-0.001,-0.001,-0.001,-0.001
713,0,-0.001,0,0,-0.001,0,0,-0.001,-0.001,-0.001,-0.001,-0.001,-0.001
714,0,-0.001,0,0,-0.001,0,0,-0.001,0,-0.001,-0.001,-0.001,-0.001
715,0.001,-0.001,0,0,-0.001,0,0,-0.001,0,-0.001,-0.001,-0.001,-0.001
716,0.001,0,0,0,-0.001,0,0,-0.001,0,-0.001,-0.001,-0.001,-0.001
717,0,-0.001,0,0,-0.001,0,0,-0.001,0,-0.001,-0.001,-0.001,-0.001
718,0,-0.001,0,0,-0.001,0,0,-0.001,0,-0.001,-0.001,-0.001,-0.001
719,0,-0.001,0,0,-0.001,0,0,-0.001,0,-0.001,-0.001,-0.001,-0.001
720,0,-0.001,0,0,-0.001,0,0,-0.001,-0.001,-0.001,-0.001,-0.001,-0.001
721,0,-0.001,0,0,-0.001,0,0,-0.001,-0.001,-0.001,-0.001,-0.001,-0.001
722,0,-0.001,0,0,-0.001,0,0,-0.001,-0.001,-0.001,-0.001,-0.001,-0.001
723,0,-0.001,0,0,-0.001,0,0,-0.001,-0.001,-0.001,-0.001,-0.001,-0.001
724,0,-0.001,0,0,-0.001,0,0,-0.001,-0.001,-0.001,-0.001,-0.001,-0.001
725,0,-0.001,0,0,-0.001,0,0,-0.001,-0.001,-0.001,-0.001,-0.001,-0.001
726,0,-0.001,0,0,-0.001,0,0,-0.001,-0.001,-0.001,-0.001,-0.001,-0.001
727,0,-0.001,0,0,-0.001,0,0,-0.001,-0.001,-0.001,-0.001,-0.001,-0.001
728,0,-0.001,0,0,-0.001,0,0,-0.001,-0.001,-0.001,-0.001,-0.001,-0.001
729,0,-0.001,0,0,-0.001,0,0,-0.001,-0.001,-0.001,-0.001,-0.001,-0.001
730,0,-0.001,0,0,-0.001,0,0,-0.001,-0.001,-0.001,-0.001,-0.001,-0.001
731,0,-0.001,0,0,-0.001,0,0,-0.001,-0.001,-0.001,-0.001,-0.001,-0.001
732,0,-0.001,0,0,-0.001,0,0,-0.001,-0.001,-0.001,-0.001,-0.001,-0.001
733,0,-0.001,0,0,-0.001,0,0,-0.001,-0.001,-0.001,-0.001,-0.001,-0.001
734,0,-0.001,0,0,-0.001,0,0,-0.001,-0.001,-0.001,-0.001,-0.001,-0.001
735,0,-0.001,0,0,-0.001,0,0,-0.001,-0.001,-0.001,-0.001,-0.001,-0.001
736,0,-0.001,0,0,-0.001,0,0,-0.001,-0.001,-0.001,-0.001,-0.001,-0.001
737,0,-0.001,0,0,-0.001,0,0,-0.001,-0.001,-0.001,-0.001,-0.001,-0.001
738,0,-0.001,0,0,-0.001,0,0,-0.001,-0.001,-0.001,-0.001,-0.001,-0.001
739,0,-0.001,0,0,-0.001,0,0,-0.001,-0.001,-0.001,-0.001,-0.001,-0.001
740,0,-0.001,0,0,-0.001,0,0,-0.001,0,-0.001,-0.001,-0.001,-0.001
741,0,-0.001,0,0,-0.001,0,0,-0.001,-0.001,-0.001,-0.001,-0.001,-0.001
742,0,-0.001,0,0,-0.001,0,0,-0.001,-0.001,-0.001,-0.001,-0.001,-0.001
743,0,-0.001,0,0,-0.001,0,0,-0.001,-0.001,-0.001,-0.001,-0.001,-0.001
744,0,-0.001,0,0,-0.001,0,0,-0.001,0,-0.001,-0.001,-0.001,-0.001
745,0,-0.001,0,0,-0.001,0,0,-0.001,-0.001,-0.001,-0.001,-0.001,-0.001
746,0,-0.001,0,0,-0.001,0,0,-0.001,-0.001,-0.001,-0.001,-0.001,-0.001
747,0,-0.001,0,0,-0.001,0,0,-0.001,0,-0.001,-0.001,-0.001,-0.001
748,0,-0.001,0,0,-0.001,0,0,-0.001,-0.001,-0.001,-0.001,-0.001,-0.001
749,0,-0.001,0,0,-0.001,0,0,-0.001,-0.001,-0.001,-0.001,-0.001,-0.001
750,0,-0.001,0,0,-0.001,0,0,-0.001,-0.001,-0.001,-0.001,-0.001,-0.001
751,0,-0.001,0,0,-0.001,0,0,-0.001,-0.001,-0.001,-0.001,-0.001,-0.001
752,0.001,-0.001,0,0,-0.001,0,0,-0.001,0,-0.001,-0.001,-0.001,-0.001
753,0.001,-0.001,0,0,-0.001,0,0,-0.001,0,-0.001,-0.001,-0.001,-0.001
754,0.001,-0.001,0,0,-0.001,0,0,-0.001,0,-0.001,-0.001,-0.001,-0.001
755,0.001,-0.001,0,0,-0.001,0,0,-0.001,0,-0.001,-0.001,-0.001,-0.001
756,0.001,-0.001,0,0,-0.001,0,0,-0.001,0,-0.001,-0.001,-0.001,-0.001
757,0.001,-0.001,0,0,-0.001,0,0,-0.001,0,-0.001,-0.001,-0.001,-0.001
758,0.001,0,0,0,-0.001,0,0,-0.001,0,-0.001,-0.001,-0.001,-0.001
759,0.001,0,0,0.001,-0.001,0,0,0,0,-0.001,0,0,-0.001
760,0.002,0.001,0.001,0.001,0,0.001,0.001,0.001,0.001,0,0.001,0,0
761,0,0,0,0.001,-0.001,0,0,0,0,-0.001,0,0,-0.001
762,0,-0.001,0,0,-0.001,0,0,-0.001,0,-0.001,-0.001,-0.001,-0.001
763,0,-0.001,0,0,-0.001,0,0,-0.001,-0.001,-0.001,-0.001,-0.001,-0.001
764,0,-0.001,0,0,-0.001,0,0,-0.001,-0.001,-0.001,-0.001,-0.001,-0.001
765,0,-0.001,0,0,-0.001,0,0,-0.001,-0.001,-0.001,-0.001,-0.001,-0.001
766,0,-0.001,0,0,-0.001,0,0,-0.001,-0.001,-0.001,-0.001,-0.001,-0.001
767,0,-0.001,0,0,-0.001,0,0,-0.001,-0.001,-0.001,-0.001,-0.001,-0.001
768,0,-0.001,0,0,-0.001,0,0,-0.001,-0.001,-0.001,-0.001,-0.001,-0.001
769,0,-0.001,0,0,-0.001,0,0,-0.001,-0.001,-0.001,-0.001,-0.001,-0.001
770,0,-0.001,0,0,-0.001,0,0,-0.001,-0.001,-0.001,-0.001,-0.001,-0.001
771,0,-0.001,0,0,-0.001,0,0,-0.001,-0.001,-0.001,-0.001,-0.001,-0.001
772,0,-0.001,0,0,-0.001,0,0,-0.001,-0.001,-0.001,-0.001,-0.001,-0.001
773,0,-0.001,0,0,-0.001,0,0,-0.001,-0.001,-0.001,-0.001,-0.001,-0.001
774,0,-0.001,0,0,-0.001,0,0,-0.001,-0.001,-0.001,-0.001,-0.001,-0.001
775,0,-0.001,0,0,-0.001,0,0,-0.001,-0.001,-0.001,-0.001,-0.001,-0.001
776,0,-0.001,0,0,-0.001,0,0,-0.001,-0.001,-0.001,-0.001,-0.001,-0.001
777,0,-0.001,0,0,-0.001,0,0,-0.001,-0.001,-0.001,-0.001,-0.001,-0.001
778,0,-0.001,0,0,-0.001,0,0,-0.001,-0.001,-0.001,-0.001,-0.001,-0.001
779,0,-0.001,0,0,-0.001,0,0,-0.001,-0.001,-0.001,-0.001,-0.001,-0.001
780,0,-0.001,0,0,-0.001,0,0,-0.001,-0.001,-0.001,-0.001,-0.001,-0.001
781,0,-0.001,0,0,-0.001,0,0,-0.001,-0.001,-0.001,-0.001,-0.001,-0.001
782,0,-0.001,0,0,-0.001,0,0,-0.001,0,-0.001,-0.001,-0.001,-0.001
783,0,0,0,0,-0.001,0,0,-0.001,0,-0.001,-0.001,-0.001,-0.001
784,0,-0.001,0,0,-0.001,0,0,-0.001,0,-0.001,-0.001,-0.001,-0.001
785,0,-0.001,0,0,-0.001,0,0,-0.001,-0.001,-0.001,-0.001,-0.001,-0.001
786,0,-0.001,0,0,-0.001,0,0,-0.001,-0.001,-0.001,-0.001,-0.001,-0.001
787,0,-0.001,0,0,-0.001,0,0,-0.001,0,-0.001,-0.001,-0.001,-0.001
788,0,0,0,0,-0.001,0,0,-0.001,0,-0.001,-0.001,-0.001,-0.001
789,0,0,0,0,-0.001,0,0,-0.001,0,-0.001,0,-0.001,-0.001
790,0,0,0,0,-0.001,0,0,-0.001,0,-0.001,0,-0.001,-0.001
791,0,0,0,0,-0.001,0,0,-0.001,0,-0.001,-0.001,-0.001,-0.001
792,0,0,0,0,-0.001,0,0,-0.001,-0.001,-0.001,-0.001,-0.001,-0.001
793,0,0,0,0,-0.001,0,0,-0.001,0,-0.001,-0.001,-0.001,-0.001
794,0,0,0,0,-0.001,0,0,-0.001,-0.001,-0.001,-0.001,-0.001,-0.001
795,0,0,0,0,-0.001,0,0,-0.001,0,-0.001,-0.001,-0.001,-0.001
796,0,0,0,0,-0.001,0,0,-0.001,0,-0.001,-0.001,-0.001,-0.001
797,0,-0.001,0,0,-0.001,0,0,-0.001,-0.001,-0.001,-0.001,-0.001,-0.001
798,0,-0.001,0,0,-0.001,0,0,-0.001,-0.001,-0.001,-0.001,-0.001,-0.001
799,0,0,0,0,-0.001,0,0,-0.001,-0.001,-0.001,-0.001,-0.001,-0.001
800,0,-0.001,0,0,-0.001,0,0,-0.001,-0.001,-0.001,-0.001,-0.001,-0.001
801,0,0,0,0,-0.001,0,0,-0.001,0,-0.001,-0.001,-0.001,-0.001
802,0,0,0,0,-0.001,0,0,-0.001,0,-0.001,-0.001,-0.001,-0.001
803,0,-0.001,0,0,-0.001,0,0,-0.001,0,-0.001,-0.001,-0.001,-0.001
804,0,0,0,0,-0.001,0,0,-0.001,0,-0.001,-0.001,-0.001,-0.001
805,0,-0.001,0,0,-0.001,0,0,-0.001,0,-0.001,-0.001,-0.001,-0.001
806,0,0,0,0,-0.001,0,0,0,0,-0.001,0,-0.001,-0.001
807,0,0,0,0,-0.001,0,0,-0.001,0,-0.001,-0.001,-0.001,-0.001
808,0,0,0,0,-0.001,0,0,0,0,-0.001,0,-0.001,-0.001
809,0,-0.001,0,0,-0.001,0,0,-0.001,-0.001,-0.001,-0.001,-0.001,-0.001
810,0,0,0,0,-0.001,0,0,-0.001,-0.001,-0.001,0,-0.001,-0.001
811,0,0,0,0,-0.001,0,0,-0.001,-0.001,-0.001,-0.001,-0.001,-0.001
812,0,0,0,0,-0.001,0,0,-0.001,0,-0.001,-0.001,-0.001,-0.001
813,0,-0.001,0,0,-0.001,0,0,-0.001,-0.001,-0.001,-0.001,-0.001,-0.001
814,0,-0.001,0,0,-0.001,0,0,-0.001,-0.001,-0.001,-0.001,-0.001,-0.001
815,0,0,0,0,-0.001,0,0,-0.001,0,-0.001,-0.001,-0.001,-0.001
816,0,0,0,0,-0.001,0,0,-0.001,0,-0.001,-0.001,-0.001,-0.001
817,0,-0.001,0,0,-0.001,0,0,-0.001,-0.001,-0.001,-0.001,-0.001,-0.001
818,0,-0.001,0,0,-0.001,0,0,-0.001,0,-0.001,-0.001,-0.001,-0.001
819,0,0,0,0,-0.001,0,0,-0.001,0,-0.001,-0.001,-0.001,-0.001
820,0,-0.001,0,0,-0.001,0,0,-0.001,-0.001,-0.001,-0.001,-0.001,-0.001
821,0,-0.001,0,0,-0.001,0,0,-0.001,-0.001,-0.001,-0.001,-0.001,-0.001
822,0,0,0,0,-0.001,0,0,-0.001,-0.001,-0.001,-0.001,-0.001,-0.001
823,0,-0.001,0,0,-0.001,0,0,-0.001,-0.001,-0.001,-0.001,-0.001,-0.001
824,0,-0.001,0,0,-0.001,0,0,-0.001,-0.001,-0.001,-0.001,-0.001,-0.001
825,0,-0.001,0,0,-0.001,0,0,-0.001,-0.001,-0.001,-0.001,-0.001,-0.001
826,0,-0.001,0,0,-0.001,0,0,-0.001,-0.001,-0.001,-0.001,-0.001,-0.001
827,0,-0.001,0,0,-0.001,0,0,-0.001,-0.001,-0.001,-0.001,-0.001,-0.001
828,0,-0.001,0,0,-0.001,0,0,-0.001,-0.001,-0.001,-0.001,-0.001,-0.001
829,0,-0.001,0,0,-0.001,0,0,-0.001,-0.001,-0.001,-0.001,-0.001,-0.001
830,0,-0.001,0,0,-0.001,0,0,-0.001,-0.001,-0.001,-0.001,-0.001,-0.001
831,0,-0.001,0,0,-0.001,0,0,-0.001,-0.001,-0.001,-0.001,-0.001,-0.001
832,0,-0.001,0,0,-0.001,0,0,-0.001,-0.001,-0.001,-0.001,-0.001,-0.001
833,0,-0.001,0,0,-0.001,0,0,-0.001,-0.001,-0.001,-0.001,-0.001,-0.001
834,0,-0.001,0,0,-0.001,0,0,-0.001,-0.001,-0.001,-0.001,-0.001,-0.001
835,0,-0.001,0,0,-0.001,0,0,-0.001,-0.001,-0.001,-0.001,-0.001,-0.001
836,0,-0.001,0,0,-0.001,0,0,-0.001,-0.001,-0.001,-0.001,-0.001,-0.001
837,0,-0.001,0,0,-0.001,0,0,-0.001,-0.001,-0.001,-0.001,-0.001,-0.001
838,0,-0.001,0,0,-0.001,0,0,-0.001,-0.001,-0.001,-0.001,-0.001,-0.001
839,0,-0.001,0,0,-0.001,0,0,-0.001,-0.001,-0.001,-0.001,-0.001,-0.001
840,0,-0.001,0,0,-0.001,0,0,-0.001,-0.001,-0.001,-0.001,-0.001,-0.001
841,0,-0.001,0,0,-0.001,0,0,-0.001,-0.001,-0.001,-0.001,-0.001,-0.001
842,0,-0.001,0,0,-0.001,0,0,-0.001,-0.001,-0.001,-0.001,-0.001,-0.001
843,0,-0.001,0,0,-0.001,0,0,-0.001,-0.001,-0.001,-0.001,-0.001,-0.001
844,0,-0.001,0,0,-0.001,0,0,-0.001,-0.001,-0.001,-0.001,-0.001,-0.001
845,0,-0.001,0,0,-0.001,0,0,-0.001,-0.001,-0.001,-0.001,-0.001,-0.001
846,0,-0.001,0,0,-0.001,0,0,-0.001,-0.001,-0.001,-0.001,-0.001,-0.001
847,0,-0.001,0,0,-0.001,0,0,-0.001,-0.001,-0.001,-0.001,-0.001,-0.001
848,0,-0.001,0,0,-0.001,0,0,-0.001,-0.001,-0.001,-0.001,-0.001,-0.001
849,0,-0.001,0,0,-0.001,0,0,-0.001,-0.001,-0.001,-0.001,-0.001,-0.001
850,0,-0.001,0,0,-0.001,0,0,-0.001,-0.001,-0.001,-0.001,-0.001,-0.001
