Wavelength nm.,MilliQ,C50_17dec24_15R1,CC4_17dec24_BOTR1,CC3_17dec24_BOTR1,CC3_17dec24_15R1,CP2_17dec24_01R1,CS1_17dec24_01R2,CS2_17dec24_01R1,CS1_17dec24_01R1,CC2_17dec24_01R1,CC4_17dec24_01R1,CC4_17dec24_6R1,CS1_17feb25_01R1
190,0.01,0.44,0.411,0.414,0.417,0.26,0.258,0.248,0.247,0.259,0.44,0.412,0.151
191,0.006,0.401,0.375,0.378,0.387,0.25,0.246,0.236,0.233,0.246,0.401,0.379,0.14
192,0.007,0.365,0.344,0.348,0.357,0.24,0.235,0.226,0.223,0.236,0.367,0.347,0.134
193,0.006,0.331,0.31,0.316,0.325,0.23,0.223,0.216,0.214,0.225,0.331,0.314,0.128
194,0.005,0.304,0.284,0.291,0.299,0.223,0.215,0.209,0.206,0.217,0.303,0.289,0.123
195,0.006,0.278,0.26,0.269,0.276,0.217,0.209,0.202,0.2,0.21,0.278,0.265,0.119
196,0.006,0.256,0.24,0.249,0.256,0.211,0.203,0.197,0.194,0.203,0.256,0.244,0.115
197,0.006,0.237,0.223,0.232,0.238,0.206,0.197,0.192,0.19,0.198,0.237,0.226,0.112
198,0.005,0.221,0.208,0.217,0.223,0.201,0.192,0.187,0.184,0.194,0.221,0.21,0.109
199,0.005,0.206,0.195,0.205,0.211,0.198,0.189,0.184,0.181,0.19,0.207,0.196,0.107
200,0.005,0.195,0.185,0.194,0.2,0.194,0.185,0.181,0.178,0.186,0.195,0.185,0.105
201,0.005,0.184,0.175,0.184,0.189,0.19,0.182,0.177,0.175,0.182,0.183,0.175,0.102
202,0.005,0.175,0.166,0.176,0.181,0.188,0.179,0.175,0.172,0.179,0.174,0.166,0.1
203,0.004,0.167,0.159,0.169,0.173,0.185,0.176,0.172,0.169,0.176,0.166,0.159,0.099
204,0.004,0.16,0.153,0.162,0.166,0.182,0.173,0.17,0.167,0.174,0.159,0.153,0.097
205,0.004,0.153,0.147,0.156,0.16,0.179,0.17,0.167,0.164,0.171,0.153,0.147,0.095
206,0.004,0.148,0.142,0.151,0.154,0.176,0.167,0.164,0.162,0.168,0.147,0.141,0.093
207,0.004,0.143,0.137,0.146,0.149,0.173,0.164,0.162,0.159,0.165,0.142,0.137,0.091
208,0.003,0.138,0.133,0.142,0.145,0.171,0.162,0.159,0.156,0.162,0.137,0.132,0.089
209,0.003,0.133,0.128,0.137,0.14,0.167,0.159,0.156,0.153,0.159,0.133,0.128,0.087
210,0.003,0.13,0.125,0.134,0.136,0.165,0.156,0.153,0.151,0.157,0.129,0.124,0.086
211,0.003,0.126,0.121,0.13,0.132,0.162,0.153,0.151,0.148,0.154,0.125,0.12,0.084
212,0.003,0.122,0.117,0.127,0.128,0.159,0.15,0.148,0.145,0.151,0.121,0.117,0.081
213,0.003,0.118,0.113,0.123,0.125,0.156,0.147,0.145,0.143,0.148,0.117,0.113,0.079
214,0.003,0.114,0.11,0.12,0.121,0.153,0.144,0.143,0.14,0.145,0.114,0.11,0.077
215,0.003,0.11,0.106,0.116,0.117,0.15,0.141,0.14,0.137,0.143,0.11,0.106,0.076
216,0.003,0.107,0.103,0.112,0.114,0.147,0.138,0.137,0.134,0.14,0.107,0.103,0.073
217,0.002,0.103,0.1,0.109,0.11,0.145,0.136,0.135,0.132,0.137,0.103,0.1,0.072
218,0.002,0.101,0.097,0.107,0.107,0.143,0.134,0.133,0.13,0.135,0.101,0.097,0.07
219,0.002,0.098,0.094,0.104,0.104,0.14,0.132,0.131,0.127,0.133,0.098,0.094,0.069
220,0.002,0.095,0.091,0.101,0.102,0.138,0.129,0.129,0.125,0.131,0.095,0.091,0.067
221,0.002,0.092,0.088,0.098,0.099,0.136,0.127,0.126,0.123,0.128,0.092,0.089,0.066
222,0.003,0.09,0.086,0.096,0.096,0.134,0.125,0.124,0.121,0.126,0.09,0.086,0.064
223,0.002,0.087,0.084,0.094,0.094,0.132,0.123,0.123,0.119,0.124,0.088,0.084,0.063
224,0.002,0.085,0.081,0.091,0.091,0.13,0.121,0.121,0.117,0.122,0.085,0.081,0.062
225,0.002,0.083,0.079,0.089,0.089,0.128,0.119,0.119,0.116,0.121,0.083,0.079,0.06
226,0.002,0.081,0.077,0.087,0.087,0.126,0.117,0.117,0.114,0.118,0.081,0.077,0.059
227,0.002,0.079,0.075,0.085,0.085,0.124,0.115,0.115,0.112,0.117,0.079,0.075,0.058
228,0.002,0.077,0.073,0.083,0.083,0.122,0.114,0.113,0.11,0.115,0.077,0.073,0.057
229,0.002,0.075,0.072,0.081,0.081,0.12,0.112,0.112,0.108,0.113,0.075,0.072,0.056
230,0.002,0.073,0.07,0.08,0.079,0.118,0.11,0.11,0.106,0.111,0.073,0.07,0.055
231,0.002,0.071,0.068,0.078,0.078,0.116,0.108,0.108,0.105,0.109,0.072,0.069,0.054
232,0.002,0.07,0.067,0.076,0.076,0.115,0.106,0.106,0.103,0.108,0.07,0.067,0.053
233,0.002,0.068,0.065,0.075,0.075,0.113,0.105,0.105,0.102,0.106,0.069,0.066,0.052
234,0.002,0.067,0.064,0.074,0.073,0.111,0.103,0.103,0.1,0.105,0.067,0.064,0.051
235,0.002,0.066,0.063,0.072,0.072,0.109,0.102,0.102,0.099,0.103,0.066,0.063,0.05
236,0.002,0.064,0.062,0.071,0.07,0.108,0.1,0.1,0.097,0.101,0.065,0.062,0.049
237,0.002,0.063,0.061,0.07,0.069,0.106,0.099,0.099,0.096,0.1,0.064,0.061,0.048
238,0.002,0.062,0.06,0.069,0.068,0.105,0.097,0.097,0.094,0.099,0.063,0.06,0.048
239,0.002,0.061,0.059,0.068,0.067,0.103,0.096,0.096,0.093,0.097,0.062,0.059,0.047
240,0.002,0.06,0.058,0.067,0.066,0.102,0.095,0.095,0.092,0.096,0.061,0.058,0.047
241,0.002,0.059,0.057,0.066,0.065,0.1,0.093,0.093,0.09,0.095,0.06,0.057,0.046
242,0.002,0.059,0.056,0.065,0.064,0.099,0.092,0.092,0.089,0.094,0.059,0.057,0.045
243,0.002,0.058,0.056,0.064,0.064,0.098,0.091,0.091,0.088,0.093,0.059,0.056,0.045
244,0.002,0.057,0.055,0.064,0.063,0.097,0.09,0.09,0.087,0.091,0.058,0.055,0.044
245,0.002,0.057,0.054,0.063,0.062,0.096,0.089,0.089,0.086,0.09,0.057,0.055,0.043
246,0.002,0.056,0.054,0.062,0.061,0.094,0.087,0.088,0.085,0.089,0.056,0.054,0.043
247,0.002,0.055,0.053,0.061,0.06,0.093,0.086,0.086,0.084,0.088,0.056,0.053,0.042
248,0.001,0.055,0.052,0.061,0.06,0.092,0.085,0.086,0.083,0.087,0.055,0.053,0.042
249,0.001,0.054,0.052,0.06,0.059,0.091,0.085,0.085,0.082,0.087,0.054,0.052,0.041
250,0.001,0.053,0.051,0.06,0.059,0.09,0.084,0.084,0.081,0.086,0.054,0.052,0.041
251,0.001,0.053,0.051,0.059,0.058,0.089,0.083,0.083,0.08,0.085,0.053,0.051,0.04
252,0.001,0.053,0.051,0.058,0.058,0.088,0.082,0.082,0.08,0.084,0.053,0.051,0.04
253,0.001,0.052,0.05,0.058,0.057,0.088,0.081,0.081,0.079,0.083,0.053,0.05,0.04
254,0.001,0.051,0.049,0.057,0.057,0.087,0.08,0.081,0.078,0.083,0.052,0.05,0.039
255,0.001,0.051,0.049,0.057,0.056,0.086,0.08,0.08,0.077,0.082,0.052,0.05,0.039
256,0.001,0.051,0.049,0.057,0.056,0.085,0.079,0.079,0.077,0.081,0.051,0.049,0.038
257,0.001,0.05,0.048,0.056,0.055,0.085,0.078,0.078,0.076,0.08,0.051,0.049,0.038
258,0.001,0.05,0.048,0.056,0.055,0.084,0.078,0.078,0.075,0.08,0.05,0.048,0.037
259,0.001,0.049,0.047,0.055,0.054,0.083,0.077,0.077,0.075,0.079,0.05,0.048,0.037
260,0.001,0.049,0.047,0.054,0.054,0.082,0.076,0.077,0.074,0.078,0.049,0.047,0.037
261,0.001,0.049,0.047,0.054,0.053,0.082,0.076,0.076,0.073,0.078,0.049,0.047,0.037
262,0.001,0.048,0.046,0.054,0.053,0.081,0.075,0.075,0.073,0.077,0.049,0.047,0.036
263,0.001,0.048,0.046,0.053,0.052,0.08,0.075,0.074,0.072,0.076,0.048,0.046,0.036
264,0.001,0.047,0.045,0.053,0.052,0.079,0.074,0.074,0.071,0.076,0.047,0.045,0.035
265,0.001,0.046,0.045,0.052,0.051,0.079,0.073,0.073,0.071,0.075,0.047,0.045,0.035
266,0.001,0.046,0.044,0.051,0.05,0.078,0.072,0.072,0.07,0.074,0.046,0.044,0.035
267,0.001,0.045,0.044,0.051,0.05,0.077,0.072,0.072,0.069,0.073,0.046,0.044,0.034
268,0.001,0.045,0.043,0.05,0.049,0.076,0.071,0.071,0.068,0.072,0.045,0.043,0.034
269,0.001,0.044,0.043,0.05,0.049,0.076,0.07,0.07,0.068,0.072,0.044,0.042,0.033
270,0.001,0.043,0.042,0.049,0.048,0.075,0.07,0.069,0.067,0.071,0.044,0.042,0.033
271,0.001,0.043,0.041,0.048,0.047,0.074,0.069,0.069,0.066,0.07,0.043,0.041,0.032
272,0.001,0.042,0.04,0.047,0.047,0.073,0.068,0.068,0.066,0.069,0.042,0.041,0.032
273,0.001,0.041,0.04,0.047,0.046,0.072,0.067,0.067,0.065,0.069,0.041,0.04,0.032
274,0.001,0.041,0.039,0.046,0.045,0.072,0.067,0.067,0.064,0.068,0.041,0.039,0.032
275,0.001,0.04,0.039,0.046,0.044,0.071,0.066,0.066,0.064,0.067,0.04,0.038,0.031
276,0.001,0.039,0.038,0.045,0.044,0.07,0.065,0.065,0.063,0.067,0.04,0.038,0.031
277,0.001,0.039,0.037,0.044,0.043,0.069,0.064,0.065,0.062,0.066,0.039,0.037,0.03
278,0.001,0.038,0.037,0.043,0.042,0.069,0.064,0.064,0.061,0.065,0.038,0.036,0.03
279,0.001,0.037,0.036,0.043,0.042,0.068,0.063,0.063,0.06,0.064,0.037,0.036,0.03
280,0.001,0.036,0.035,0.042,0.041,0.067,0.062,0.062,0.06,0.063,0.037,0.035,0.029
281,0.001,0.036,0.034,0.041,0.04,0.066,0.061,0.061,0.059,0.062,0.036,0.034,0.029
282,0.001,0.035,0.034,0.04,0.039,0.066,0.061,0.061,0.058,0.062,0.035,0.034,0.028
283,0.001,0.034,0.033,0.04,0.039,0.065,0.06,0.06,0.058,0.061,0.035,0.033,0.028
284,0.001,0.034,0.032,0.039,0.038,0.064,0.059,0.059,0.057,0.06,0.034,0.032,0.027
285,0.001,0.033,0.031,0.038,0.037,0.063,0.058,0.058,0.056,0.059,0.033,0.031,0.027
286,0.001,0.032,0.031,0.038,0.037,0.062,0.058,0.058,0.055,0.059,0.033,0.031,0.027
287,0.001,0.032,0.03,0.037,0.036,0.061,0.057,0.057,0.054,0.058,0.032,0.03,0.026
288,0.001,0.031,0.029,0.036,0.035,0.06,0.056,0.056,0.054,0.057,0.031,0.029,0.026
289,0.001,0.031,0.029,0.035,0.035,0.06,0.055,0.055,0.053,0.056,0.03,0.028,0.026
290,0.001,0.03,0.028,0.035,0.034,0.059,0.054,0.055,0.052,0.055,0.03,0.028,0.025
291,0.001,0.029,0.027,0.034,0.033,0.058,0.054,0.054,0.052,0.055,0.029,0.027,0.025
292,0.001,0.029,0.027,0.033,0.033,0.057,0.053,0.053,0.051,0.054,0.028,0.027,0.024
293,0.001,0.028,0.026,0.033,0.032,0.056,0.052,0.053,0.05,0.053,0.028,0.026,0.024
294,0.001,0.027,0.026,0.032,0.031,0.055,0.052,0.052,0.049,0.052,0.027,0.025,0.024
295,0.001,0.027,0.025,0.032,0.031,0.055,0.051,0.051,0.049,0.052,0.027,0.025,0.024
296,0.001,0.026,0.025,0.031,0.03,0.054,0.05,0.05,0.048,0.051,0.026,0.024,0.023
297,0.001,0.026,0.024,0.03,0.03,0.053,0.05,0.05,0.047,0.05,0.026,0.024,0.023
298,0.001,0.025,0.024,0.03,0.029,0.053,0.049,0.049,0.047,0.05,0.025,0.023,0.022
299,0.001,0.025,0.023,0.029,0.029,0.052,0.049,0.049,0.046,0.049,0.025,0.023,0.022
300,0.001,0.024,0.023,0.029,0.028,0.052,0.048,0.048,0.046,0.049,0.024,0.023,0.022
301,0.001,0.024,0.022,0.029,0.028,0.051,0.047,0.048,0.045,0.048,0.024,0.022,0.022
302,0.001,0.023,0.022,0.028,0.027,0.05,0.047,0.047,0.045,0.047,0.023,0.022,0.021
303,0.001,0.022,0.021,0.027,0.026,0.049,0.046,0.046,0.044,0.046,0.023,0.021,0.021
304,0.001,0.022,0.021,0.027,0.026,0.049,0.045,0.046,0.043,0.046,0.022,0.02,0.02
305,0.001,0.022,0.02,0.026,0.026,0.048,0.045,0.045,0.043,0.045,0.022,0.02,0.02
306,0.001,0.021,0.02,0.026,0.025,0.048,0.044,0.044,0.042,0.045,0.021,0.02,0.02
307,0.001,0.021,0.019,0.025,0.025,0.047,0.043,0.044,0.041,0.044,0.021,0.019,0.019
308,0.001,0.02,0.019,0.025,0.024,0.046,0.043,0.043,0.041,0.043,0.021,0.019,0.019
309,0.001,0.02,0.019,0.024,0.024,0.046,0.042,0.043,0.04,0.043,0.02,0.018,0.019
310,0.001,0.019,0.018,0.024,0.024,0.045,0.042,0.042,0.04,0.042,0.02,0.018,0.019
311,0.001,0.019,0.018,0.023,0.023,0.045,0.041,0.041,0.039,0.042,0.019,0.018,0.018
312,0.001,0.019,0.018,0.023,0.023,0.044,0.041,0.041,0.038,0.041,0.019,0.017,0.018
313,0.001,0.018,0.017,0.023,0.023,0.043,0.04,0.041,0.038,0.041,0.019,0.017,0.018
314,0.001,0.018,0.017,0.022,0.022,0.043,0.04,0.04,0.038,0.04,0.018,0.017,0.017
315,0.001,0.018,0.017,0.022,0.021,0.042,0.039,0.039,0.037,0.039,0.018,0.016,0.017
316,0.001,0.017,0.016,0.022,0.021,0.042,0.039,0.039,0.037,0.039,0.018,0.016,0.017
317,0.001,0.017,0.016,0.022,0.021,0.041,0.039,0.039,0.036,0.038,0.017,0.016,0.017
318,0.001,0.017,0.016,0.021,0.02,0.04,0.038,0.038,0.036,0.038,0.017,0.016,0.016
319,0.001,0.017,0.016,0.021,0.02,0.04,0.037,0.038,0.035,0.037,0.017,0.015,0.016
320,0.001,0.016,0.015,0.021,0.02,0.04,0.037,0.037,0.035,0.037,0.016,0.015,0.016
321,0,0.016,0.015,0.02,0.02,0.039,0.036,0.036,0.034,0.036,0.016,0.015,0.016
322,0,0.016,0.014,0.019,0.019,0.038,0.036,0.036,0.034,0.036,0.016,0.014,0.016
323,0.001,0.016,0.014,0.019,0.019,0.038,0.036,0.035,0.033,0.036,0.015,0.014,0.015
324,0.001,0.015,0.014,0.019,0.019,0.037,0.035,0.035,0.033,0.035,0.015,0.014,0.015
325,0.001,0.015,0.014,0.019,0.019,0.037,0.035,0.035,0.033,0.035,0.015,0.014,0.015
326,0.001,0.015,0.014,0.019,0.018,0.036,0.034,0.034,0.032,0.034,0.015,0.013,0.015
327,0.001,0.015,0.014,0.019,0.018,0.036,0.034,0.034,0.032,0.034,0.015,0.013,0.015
328,0.001,0.014,0.013,0.018,0.018,0.035,0.033,0.033,0.031,0.033,0.014,0.013,0.014
329,0.001,0.014,0.013,0.018,0.018,0.035,0.033,0.033,0.031,0.033,0.014,0.013,0.014
330,0,0.014,0.013,0.017,0.017,0.035,0.032,0.032,0.03,0.032,0.014,0.012,0.014
331,0.001,0.014,0.013,0.017,0.017,0.034,0.032,0.032,0.03,0.032,0.014,0.012,0.014
332,0.001,0.014,0.012,0.017,0.017,0.034,0.031,0.031,0.029,0.031,0.014,0.012,0.014
333,0.001,0.013,0.012,0.017,0.017,0.034,0.031,0.031,0.029,0.031,0.014,0.012,0.014
334,0.001,0.013,0.012,0.016,0.016,0.033,0.031,0.031,0.029,0.031,0.013,0.012,0.013
335,0.001,0.013,0.012,0.016,0.016,0.033,0.03,0.03,0.028,0.031,0.013,0.011,0.013
336,0.001,0.012,0.012,0.016,0.016,0.032,0.03,0.03,0.028,0.03,0.013,0.011,0.012
337,0.001,0.012,0.012,0.016,0.016,0.031,0.029,0.029,0.027,0.029,0.013,0.011,0.013
338,0.001,0.012,0.011,0.016,0.016,0.031,0.029,0.029,0.027,0.029,0.012,0.011,0.013
339,0.001,0.012,0.012,0.015,0.015,0.031,0.029,0.029,0.027,0.029,0.013,0.011,0.013
340,0.002,0.013,0.012,0.016,0.016,0.031,0.029,0.029,0.027,0.029,0.013,0.012,0.013
341,0.001,0.012,0.011,0.015,0.015,0.029,0.028,0.028,0.026,0.028,0.012,0.011,0.012
342,0.001,0.012,0.01,0.015,0.014,0.029,0.027,0.027,0.025,0.027,0.012,0.01,0.012
343,0,0.011,0.01,0.014,0.014,0.028,0.027,0.027,0.025,0.027,0.011,0.01,0.012
344,0.001,0.011,0.01,0.014,0.014,0.028,0.027,0.026,0.025,0.027,0.011,0.01,0.011
345,0.001,0.011,0.01,0.014,0.014,0.028,0.026,0.026,0.024,0.026,0.011,0.01,0.011
346,0.001,0.011,0.01,0.014,0.013,0.027,0.026,0.025,0.024,0.026,0.011,0.009,0.011
347,0.001,0.011,0.01,0.014,0.014,0.027,0.026,0.025,0.024,0.026,0.011,0.009,0.011
348,0.001,0.01,0.009,0.014,0.013,0.027,0.025,0.025,0.023,0.025,0.011,0.009,0.011
349,0,0.01,0.009,0.013,0.013,0.026,0.024,0.024,0.023,0.025,0.01,0.009,0.01
350,0.001,0.01,0.009,0.013,0.013,0.026,0.024,0.024,0.023,0.025,0.01,0.009,0.01
351,0.001,0.01,0.009,0.013,0.013,0.026,0.024,0.024,0.022,0.024,0.01,0.009,0.01
352,0.001,0.01,0.009,0.013,0.013,0.025,0.024,0.024,0.022,0.024,0.01,0.009,0.01
353,0.001,0.01,0.009,0.013,0.012,0.025,0.023,0.023,0.021,0.024,0.01,0.008,0.01
354,0.001,0.009,0.008,0.012,0.012,0.024,0.023,0.023,0.021,0.023,0.009,0.008,0.009
355,0,0.009,0.008,0.012,0.012,0.024,0.022,0.022,0.021,0.023,0.009,0.008,0.009
356,0,0.009,0.008,0.012,0.011,0.023,0.022,0.021,0.02,0.022,0.009,0.008,0.009
357,0,0.009,0.008,0.012,0.011,0.023,0.022,0.021,0.02,0.021,0.009,0.007,0.009
358,0,0.008,0.008,0.012,0.011,0.023,0.021,0.021,0.02,0.021,0.009,0.007,0.009
359,0,0.009,0.008,0.011,0.011,0.022,0.021,0.021,0.019,0.021,0.009,0.007,0.009
360,0,0.008,0.007,0.011,0.011,0.022,0.021,0.021,0.019,0.021,0.009,0.007,0.009
361,0,0.008,0.007,0.011,0.011,0.022,0.021,0.02,0.019,0.021,0.009,0.007,0.009
362,0.001,0.008,0.007,0.011,0.011,0.021,0.021,0.02,0.019,0.021,0.009,0.007,0.009
363,0.001,0.008,0.007,0.011,0.01,0.021,0.02,0.02,0.018,0.02,0.008,0.007,0.008
364,0,0.008,0.007,0.01,0.01,0.021,0.02,0.02,0.018,0.02,0.008,0.007,0.008
365,0,0.007,0.007,0.01,0.01,0.02,0.019,0.019,0.018,0.019,0.008,0.006,0.008
366,0.001,0.008,0.007,0.01,0.01,0.02,0.02,0.019,0.018,0.019,0.008,0.006,0.008
367,0.001,0.008,0.007,0.01,0.01,0.02,0.019,0.019,0.018,0.019,0.008,0.007,0.008
368,0,0.007,0.007,0.01,0.009,0.02,0.019,0.019,0.017,0.019,0.008,0.006,0.008
369,0,0.007,0.007,0.01,0.009,0.019,0.018,0.018,0.017,0.019,0.007,0.006,0.008
370,0,0.007,0.006,0.009,0.009,0.019,0.018,0.018,0.017,0.018,0.007,0.006,0.007
371,0,0.007,0.006,0.009,0.009,0.018,0.018,0.018,0.016,0.018,0.007,0.006,0.007
372,0,0.007,0.006,0.009,0.009,0.018,0.018,0.017,0.016,0.018,0.007,0.006,0.007
373,0,0.007,0.006,0.01,0.009,0.018,0.018,0.017,0.016,0.018,0.007,0.006,0.007
374,0,0.007,0.006,0.009,0.009,0.018,0.018,0.017,0.016,0.017,0.007,0.006,0.007
375,0,0.007,0.006,0.009,0.009,0.018,0.017,0.017,0.016,0.017,0.007,0.006,0.007
376,0,0.006,0.006,0.009,0.009,0.018,0.017,0.016,0.015,0.017,0.007,0.006,0.007
377,0.001,0.006,0.006,0.009,0.008,0.017,0.017,0.016,0.015,0.017,0.007,0.006,0.007
378,0.001,0.006,0.005,0.009,0.008,0.017,0.016,0.016,0.015,0.016,0.007,0.005,0.007
379,0,0.006,0.005,0.009,0.008,0.017,0.016,0.016,0.015,0.016,0.006,0.005,0.007
380,0,0.006,0.005,0.008,0.008,0.016,0.016,0.016,0.014,0.016,0.006,0.005,0.006
381,0,0.006,0.005,0.008,0.008,0.016,0.016,0.015,0.014,0.016,0.006,0.005,0.006
382,0,0.006,0.005,0.008,0.008,0.016,0.016,0.015,0.014,0.015,0.006,0.005,0.006
383,0.001,0.006,0.005,0.008,0.008,0.016,0.015,0.015,0.014,0.015,0.006,0.005,0.006
384,0.001,0.006,0.005,0.008,0.008,0.016,0.015,0.015,0.014,0.015,0.006,0.005,0.006
385,0.001,0.006,0.005,0.008,0.008,0.016,0.015,0.015,0.014,0.015,0.006,0.005,0.006
386,0.001,0.006,0.005,0.008,0.008,0.015,0.015,0.015,0.013,0.015,0.006,0.005,0.006
387,0.001,0.006,0.005,0.008,0.007,0.015,0.014,0.014,0.013,0.014,0.006,0.005,0.006
388,0.001,0.006,0.005,0.008,0.007,0.015,0.014,0.014,0.013,0.014,0.006,0.005,0.006
389,0.001,0.005,0.005,0.008,0.007,0.015,0.014,0.014,0.013,0.014,0.006,0.004,0.005
390,0.001,0.005,0.005,0.007,0.007,0.014,0.014,0.013,0.013,0.014,0.006,0.004,0.005
391,0.001,0.005,0.005,0.007,0.007,0.014,0.014,0.013,0.012,0.014,0.005,0.004,0.005
392,0,0.005,0.004,0.007,0.007,0.014,0.014,0.013,0.012,0.013,0.005,0.004,0.005
393,0,0.005,0.004,0.007,0.007,0.014,0.013,0.013,0.012,0.013,0.005,0.004,0.005
394,0,0.005,0.004,0.007,0.007,0.013,0.013,0.013,0.012,0.013,0.005,0.004,0.005
395,0,0.005,0.004,0.007,0.006,0.013,0.013,0.013,0.012,0.013,0.005,0.004,0.005
396,0,0.005,0.004,0.007,0.006,0.013,0.013,0.013,0.012,0.013,0.005,0.004,0.005
397,0,0.005,0.004,0.007,0.006,0.013,0.013,0.012,0.011,0.013,0.005,0.004,0.005
398,0,0.004,0.004,0.006,0.006,0.013,0.012,0.012,0.011,0.012,0.005,0.004,0.005
399,0,0.005,0.004,0.006,0.006,0.012,0.012,0.012,0.011,0.012,0.005,0.004,0.005
400,0,0.005,0.004,0.006,0.006,0.012,0.012,0.012,0.011,0.012,0.005,0.004,0.005
401,0,0.005,0.004,0.006,0.006,0.012,0.012,0.012,0.011,0.012,0.005,0.004,0.005
402,0,0.004,0.004,0.006,0.006,0.012,0.012,0.012,0.011,0.012,0.005,0.004,0.005
403,0,0.004,0.004,0.006,0.006,0.012,0.012,0.011,0.011,0.012,0.005,0.003,0.004
404,0,0.004,0.004,0.006,0.006,0.012,0.011,0.011,0.01,0.011,0.004,0.003,0.004
405,0,0.004,0.003,0.006,0.005,0.011,0.011,0.011,0.01,0.011,0.004,0.003,0.004
406,0,0.004,0.003,0.006,0.005,0.011,0.011,0.011,0.01,0.011,0.004,0.003,0.004
407,0,0.004,0.004,0.006,0.005,0.011,0.011,0.011,0.01,0.011,0.004,0.003,0.004
408,0,0.004,0.003,0.006,0.005,0.011,0.011,0.011,0.01,0.011,0.004,0.003,0.004
409,0,0.004,0.003,0.006,0.005,0.011,0.011,0.011,0.01,0.011,0.004,0.003,0.004
410,0,0.004,0.003,0.006,0.005,0.011,0.011,0.01,0.01,0.01,0.004,0.003,0.004
411,0,0.004,0.003,0.006,0.005,0.011,0.011,0.01,0.01,0.01,0.004,0.003,0.004
412,0,0.004,0.003,0.006,0.005,0.011,0.01,0.01,0.009,0.01,0.004,0.003,0.004
413,0,0.004,0.003,0.006,0.005,0.01,0.01,0.01,0.009,0.01,0.004,0.003,0.004
414,0,0.004,0.003,0.006,0.005,0.01,0.01,0.01,0.009,0.01,0.004,0.003,0.004
415,0,0.004,0.003,0.006,0.005,0.01,0.01,0.01,0.009,0.01,0.004,0.003,0.004
416,0,0.004,0.003,0.005,0.005,0.01,0.01,0.01,0.009,0.01,0.004,0.003,0.004
417,0,0.003,0.003,0.005,0.005,0.01,0.01,0.009,0.009,0.01,0.004,0.003,0.004
418,0,0.003,0.003,0.005,0.005,0.01,0.01,0.009,0.009,0.01,0.004,0.003,0.003
419,0,0.003,0.003,0.005,0.005,0.01,0.01,0.009,0.009,0.009,0.004,0.003,0.003
420,0,0.003,0.003,0.005,0.004,0.01,0.009,0.009,0.008,0.009,0.003,0.002,0.003
421,0,0.003,0.003,0.005,0.004,0.009,0.009,0.009,0.008,0.009,0.003,0.002,0.003
422,0,0.003,0.003,0.005,0.004,0.009,0.009,0.009,0.008,0.009,0.003,0.002,0.003
423,0,0.003,0.003,0.005,0.004,0.009,0.009,0.009,0.008,0.009,0.003,0.002,0.003
424,0,0.003,0.003,0.005,0.004,0.009,0.009,0.009,0.008,0.009,0.003,0.002,0.003
425,0,0.003,0.003,0.005,0.004,0.009,0.009,0.009,0.008,0.009,0.003,0.002,0.003
426,0,0.003,0.003,0.005,0.004,0.009,0.009,0.008,0.008,0.009,0.003,0.002,0.003
427,0,0.003,0.003,0.005,0.004,0.009,0.009,0.008,0.008,0.009,0.003,0.002,0.003
428,0,0.003,0.002,0.004,0.004,0.009,0.008,0.008,0.008,0.008,0.003,0.002,0.003
429,0,0.003,0.002,0.004,0.004,0.008,0.008,0.008,0.008,0.008,0.003,0.002,0.003
430,0,0.003,0.002,0.004,0.004,0.008,0.008,0.008,0.007,0.008,0.003,0.002,0.003
431,0,0.003,0.002,0.004,0.004,0.008,0.008,0.008,0.007,0.008,0.003,0.002,0.003
432,0,0.003,0.002,0.004,0.004,0.008,0.008,0.008,0.007,0.008,0.003,0.002,0.003
433,0,0.003,0.002,0.004,0.004,0.008,0.008,0.008,0.007,0.008,0.003,0.002,0.003
434,0,0.003,0.002,0.004,0.004,0.008,0.008,0.008,0.007,0.008,0.003,0.002,0.003
435,0,0.002,0.002,0.004,0.003,0.008,0.008,0.008,0.007,0.008,0.003,0.002,0.003
436,0,0.002,0.002,0.004,0.003,0.008,0.008,0.007,0.007,0.008,0.003,0.002,0.003
437,0,0.002,0.002,0.004,0.003,0.008,0.008,0.007,0.007,0.008,0.003,0.002,0.003
438,0,0.002,0.002,0.004,0.003,0.007,0.008,0.007,0.007,0.008,0.003,0.002,0.003
439,0,0.002,0.002,0.004,0.003,0.007,0.008,0.007,0.007,0.008,0.003,0.002,0.003
440,0,0.002,0.002,0.004,0.003,0.007,0.007,0.007,0.007,0.007,0.003,0.002,0.003
441,0,0.002,0.002,0.004,0.003,0.007,0.007,0.007,0.006,0.007,0.003,0.002,0.002
442,0,0.002,0.002,0.004,0.003,0.007,0.007,0.007,0.006,0.007,0.003,0.002,0.002
443,0,0.002,0.002,0.003,0.003,0.007,0.007,0.007,0.006,0.007,0.003,0.002,0.002
444,0,0.002,0.002,0.004,0.003,0.007,0.007,0.007,0.006,0.007,0.003,0.002,0.002
445,0,0.002,0.002,0.004,0.003,0.007,0.007,0.007,0.006,0.007,0.003,0.002,0.002
446,0,0.002,0.002,0.004,0.003,0.007,0.007,0.007,0.006,0.007,0.002,0.002,0.002
447,0,0.002,0.002,0.004,0.003,0.007,0.007,0.007,0.006,0.007,0.002,0.002,0.002
448,0,0.002,0.002,0.004,0.003,0.007,0.007,0.006,0.006,0.007,0.002,0.001,0.002
449,0,0.002,0.002,0.004,0.003,0.007,0.007,0.006,0.006,0.007,0.002,0.001,0.002
450,0,0.002,0.002,0.004,0.003,0.007,0.007,0.006,0.006,0.007,0.002,0.001,0.002
451,0,0.002,0.002,0.004,0.003,0.007,0.007,0.006,0.006,0.007,0.002,0.002,0.002
452,0,0.002,0.002,0.004,0.003,0.006,0.007,0.006,0.006,0.007,0.002,0.001,0.002
453,0,0.002,0.002,0.003,0.003,0.006,0.007,0.006,0.006,0.007,0.002,0.001,0.002
454,0,0.002,0.002,0.004,0.003,0.006,0.007,0.006,0.006,0.007,0.002,0.001,0.002
455,0,0.002,0.002,0.004,0.003,0.006,0.007,0.006,0.006,0.006,0.002,0.001,0.002
456,0,0.002,0.002,0.003,0.003,0.006,0.006,0.006,0.006,0.006,0.002,0.001,0.002
457,0,0.002,0.002,0.003,0.003,0.006,0.006,0.006,0.006,0.006,0.002,0.002,0.002
458,0,0.002,0.002,0.003,0.003,0.006,0.006,0.006,0.005,0.006,0.002,0.001,0.002
459,0,0.002,0.002,0.003,0.003,0.006,0.006,0.006,0.005,0.006,0.002,0.001,0.002
460,0,0.002,0.002,0.003,0.003,0.006,0.006,0.006,0.005,0.006,0.002,0.001,0.002
461,0,0.002,0.002,0.003,0.003,0.006,0.006,0.006,0.005,0.006,0.002,0.001,0.002
462,0,0.002,0.001,0.003,0.003,0.006,0.006,0.006,0.005,0.006,0.002,0.001,0.002
463,0,0.002,0.002,0.003,0.003,0.006,0.006,0.006,0.005,0.006,0.002,0.001,0.002
464,0,0.002,0.002,0.003,0.003,0.006,0.006,0.006,0.005,0.006,0.002,0.001,0.002
465,0,0.002,0.001,0.003,0.003,0.006,0.006,0.006,0.005,0.006,0.002,0.001,0.002
466,0,0.002,0.001,0.003,0.003,0.006,0.006,0.005,0.005,0.006,0.002,0.001,0.002
467,0,0.002,0.001,0.003,0.003,0.006,0.006,0.005,0.005,0.006,0.002,0.001,0.002
468,0,0.002,0.001,0.003,0.003,0.006,0.006,0.005,0.005,0.006,0.002,0.001,0.002
469,0,0.002,0.001,0.003,0.003,0.005,0.006,0.005,0.005,0.006,0.002,0.001,0.002
470,0,0.002,0.001,0.003,0.002,0.005,0.006,0.005,0.005,0.006,0.002,0.001,0.002
471,0,0.002,0.001,0.003,0.002,0.005,0.006,0.005,0.005,0.006,0.002,0.001,0.002
472,0,0.002,0.001,0.003,0.002,0.005,0.006,0.005,0.005,0.006,0.002,0.001,0.002
473,0,0.002,0.001,0.003,0.002,0.005,0.006,0.005,0.005,0.006,0.002,0.001,0.002
474,0,0.002,0.001,0.003,0.002,0.005,0.005,0.005,0.005,0.005,0.002,0.001,0.002
475,0,0.002,0.001,0.003,0.002,0.005,0.005,0.005,0.005,0.005,0.002,0.001,0.002
476,0,0.002,0.001,0.003,0.002,0.005,0.005,0.005,0.005,0.005,0.002,0.001,0.002
477,0,0.002,0.001,0.003,0.002,0.005,0.005,0.005,0.005,0.005,0.002,0.001,0.002
478,0,0.002,0.001,0.003,0.002,0.005,0.005,0.005,0.005,0.005,0.002,0.001,0.002
479,0,0.002,0.001,0.003,0.002,0.005,0.005,0.005,0.005,0.005,0.002,0.001,0.002
480,0,0.001,0.001,0.003,0.002,0.005,0.005,0.005,0.005,0.005,0.002,0.001,0.002
481,0,0.001,0.001,0.003,0.002,0.005,0.005,0.005,0.004,0.005,0.002,0.001,0.002
482,0,0.001,0.001,0.003,0.002,0.005,0.005,0.005,0.004,0.005,0.002,0.001,0.002
483,0,0.001,0.001,0.003,0.002,0.004,0.005,0.005,0.004,0.005,0.002,0.001,0.001
484,0,0.001,0.001,0.003,0.002,0.005,0.005,0.005,0.004,0.005,0.002,0.001,0.001
485,0,0.001,0.001,0.003,0.002,0.004,0.005,0.005,0.004,0.005,0.002,0.001,0.001
486,0,0.001,0.001,0.003,0.002,0.004,0.005,0.005,0.004,0.005,0.002,0.001,0.002
487,0,0.001,0.001,0.003,0.002,0.004,0.005,0.004,0.004,0.005,0.002,0.001,0.002
488,0,0.001,0.001,0.002,0.002,0.004,0.005,0.004,0.004,0.005,0.002,0.001,0.001
489,0,0.001,0.001,0.002,0.002,0.004,0.005,0.004,0.004,0.005,0.002,0.001,0.001
490,0,0.001,0.001,0.002,0.002,0.004,0.005,0.004,0.004,0.005,0.002,0.001,0.001
491,0,0.001,0.001,0.002,0.002,0.004,0.005,0.004,0.004,0.005,0.001,0.001,0.001
492,0,0.001,0.001,0.002,0.002,0.004,0.005,0.004,0.004,0.005,0.001,0.001,0.001
493,0,0.001,0.001,0.002,0.002,0.004,0.005,0.004,0.004,0.005,0.002,0.001,0.001
494,0,0.001,0.001,0.002,0.002,0.004,0.004,0.004,0.004,0.005,0.001,0.001,0.001
495,0,0.001,0.001,0.002,0.002,0.004,0.004,0.004,0.004,0.004,0.001,0.001,0.001
496,0,0.001,0.001,0.002,0.002,0.004,0.004,0.004,0.004,0.004,0.001,0.001,0.001
497,0,0.001,0.001,0.002,0.002,0.004,0.004,0.004,0.004,0.004,0.001,0.001,0.001
498,0,0.001,0.001,0.002,0.002,0.004,0.004,0.004,0.004,0.004,0.001,0.001,0.001
499,0,0.001,0.001,0.002,0.002,0.004,0.004,0.004,0.004,0.004,0.001,0.001,0.001
500,0,0.001,0.001,0.002,0.002,0.004,0.004,0.004,0.004,0.004,0.001,0.001,0.001
501,0,0.001,0.001,0.002,0.002,0.004,0.004,0.004,0.004,0.004,0.001,0.001,0.001
502,0,0.001,0.001,0.002,0.002,0.004,0.004,0.004,0.004,0.004,0.001,0.001,0.001
503,0,0.001,0.001,0.002,0.002,0.004,0.004,0.004,0.003,0.004,0.001,0.001,0.001
504,0,0.001,0.001,0.002,0.002,0.004,0.004,0.004,0.004,0.004,0.001,0.001,0.001
505,0,0.001,0.001,0.002,0.002,0.004,0.004,0.004,0.003,0.004,0.001,0.001,0.001
506,0,0.001,0.001,0.002,0.002,0.004,0.004,0.004,0.003,0.004,0.001,0.001,0.001
507,0,0.001,0.001,0.002,0.002,0.004,0.004,0.004,0.003,0.004,0.001,0.001,0.001
508,0,0.001,0.001,0.002,0.002,0.004,0.004,0.004,0.003,0.004,0.001,0.001,0.001
509,0,0.001,0.001,0.002,0.002,0.004,0.004,0.004,0.003,0.004,0.001,0.001,0.001
510,0,0.001,0.001,0.002,0.001,0.004,0.004,0.004,0.003,0.004,0.001,0.001,0.001
511,0,0.001,0.001,0.002,0.002,0.004,0.004,0.004,0.003,0.004,0.001,0.001,0.001
512,0,0.001,0.001,0.002,0.002,0.004,0.004,0.004,0.003,0.004,0.001,0.001,0.001
513,0,0.001,0.001,0.002,0.002,0.004,0.004,0.004,0.003,0.004,0.001,0.001,0.001
514,0,0.001,0.001,0.002,0.001,0.004,0.004,0.004,0.003,0.004,0.001,0.001,0.001
515,0,0.001,0.001,0.002,0.001,0.003,0.004,0.003,0.003,0.004,0.001,0,0.001
516,0,0.001,0.001,0.002,0.001,0.003,0.004,0.003,0.003,0.004,0.001,0.001,0.001
517,0,0.001,0.001,0.002,0.001,0.003,0.004,0.003,0.003,0.004,0.001,0,0.001
518,0,0.001,0.001,0.002,0.001,0.003,0.004,0.003,0.003,0.004,0.001,0,0.001
519,0,0.001,0,0.002,0.001,0.003,0.004,0.003,0.003,0.004,0.001,0,0.001
520,0,0.001,0,0.002,0.001,0.003,0.004,0.003,0.003,0.004,0.001,0,0.001
521,0,0.001,0.001,0.002,0.001,0.003,0.004,0.003,0.003,0.004,0.001,0,0.001
522,0,0.001,0.001,0.002,0.001,0.003,0.004,0.003,0.003,0.004,0.001,0,0.001
523,0,0.001,0.001,0.002,0.001,0.003,0.004,0.003,0.003,0.004,0.001,0,0.001
524,0,0.001,0,0.002,0.001,0.003,0.003,0.003,0.003,0.004,0.001,0,0.001
525,0,0.001,0.001,0.002,0.001,0.003,0.003,0.003,0.003,0.004,0.001,0,0.001
526,0,0.001,0.001,0.002,0.001,0.003,0.004,0.003,0.003,0.004,0.001,0,0.001
527,0,0.001,0.001,0.002,0.001,0.003,0.003,0.003,0.003,0.004,0.001,0,0.001
528,0,0.001,0.001,0.002,0.001,0.003,0.003,0.003,0.003,0.004,0.001,0,0.001
529,0,0.001,0,0.002,0.001,0.003,0.003,0.003,0.003,0.003,0.001,0,0.001
530,0,0.001,0.001,0.002,0.001,0.003,0.003,0.003,0.003,0.003,0.001,0,0.001
531,0,0.001,0.001,0.002,0.001,0.003,0.003,0.003,0.003,0.003,0.001,0,0.001
532,0,0.001,0,0.002,0.001,0.003,0.003,0.003,0.003,0.003,0.001,0,0.001
533,0,0.001,0.001,0.002,0.001,0.003,0.003,0.003,0.003,0.003,0.001,0,0.001
534,0,0.001,0,0.002,0.001,0.003,0.003,0.003,0.003,0.003,0.001,0,0.001
535,0,0.001,0.001,0.002,0.001,0.003,0.004,0.003,0.003,0.004,0.001,0.001,0.001
536,0.001,0.002,0.001,0.003,0.002,0.004,0.004,0.004,0.004,0.004,0.002,0.001,0.002
537,0,0.001,0.001,0.002,0.001,0.003,0.003,0.003,0.003,0.003,0.001,0.001,0.001
538,0,0.001,0,0.002,0.001,0.003,0.003,0.003,0.003,0.003,0.001,0,0.001
539,0,0,0,0.002,0.001,0.003,0.003,0.003,0.003,0.003,0.001,0,0.001
540,0,0,0,0.002,0.001,0.003,0.003,0.003,0.003,0.003,0.001,0,0.001
541,0,0,0,0.002,0.001,0.003,0.003,0.003,0.003,0.003,0.001,0,0.001
542,0,0.001,0,0.002,0.001,0.003,0.003,0.003,0.003,0.003,0.001,0,0.001
543,0,0.001,0,0.002,0.001,0.003,0.003,0.003,0.003,0.003,0.001,0,0.001
544,0,0.001,0,0.002,0.001,0.003,0.003,0.003,0.003,0.003,0.001,0,0.001
545,0,0.001,0,0.002,0.001,0.003,0.003,0.003,0.003,0.003,0.001,0,0.001
546,0,0.001,0,0.002,0.001,0.003,0.003,0.003,0.003,0.003,0.001,0,0.001
547,0,0.001,0,0.002,0.001,0.003,0.003,0.003,0.003,0.003,0.001,0,0.001
548,0,0.001,0,0.002,0.001,0.003,0.003,0.003,0.003,0.003,0.001,0,0.001
549,0,0.001,0,0.002,0.001,0.003,0.003,0.003,0.003,0.003,0.001,0,0.001
550,0,0.001,0,0.001,0.001,0.003,0.003,0.003,0.002,0.003,0.001,0,0.001
551,0,0.001,0,0.002,0.001,0.003,0.003,0.003,0.003,0.003,0.001,0,0.001
552,0,0.001,0.001,0.002,0.001,0.003,0.003,0.003,0.003,0.003,0.001,0,0.001
553,0,0.001,0,0.002,0.001,0.003,0.003,0.003,0.003,0.003,0.001,0,0.001
554,0,0.001,0.001,0.002,0.001,0.003,0.003,0.003,0.003,0.003,0.001,0,0.001
555,0,0.001,0,0.002,0.001,0.003,0.003,0.003,0.002,0.003,0.001,0,0.001
556,0,0.001,0,0.002,0.001,0.003,0.003,0.003,0.003,0.003,0.001,0,0.001
557,0,0.001,0,0.002,0.001,0.003,0.003,0.003,0.002,0.003,0.001,0,0.001
558,0,0.001,0,0.002,0.001,0.003,0.003,0.003,0.002,0.003,0.001,0,0.001
559,0,0.001,0,0.002,0.001,0.003,0.003,0.003,0.002,0.003,0.001,0,0.001
560,0,0.001,0,0.002,0.001,0.003,0.003,0.003,0.002,0.003,0.001,0,0.001
561,0,0.001,0,0.002,0.001,0.003,0.003,0.003,0.002,0.003,0.001,0,0.001
562,0,0.001,0,0.002,0.001,0.003,0.003,0.003,0.002,0.003,0.001,0,0.001
563,0,0.001,0,0.002,0.001,0.003,0.003,0.003,0.002,0.003,0.001,0,0.001
564,0,0.001,0,0.002,0.001,0.003,0.003,0.003,0.002,0.003,0.001,0,0.001
565,0,0.001,0.001,0.002,0.001,0.003,0.003,0.003,0.002,0.003,0.001,0,0.001
566,0,0.001,0.001,0.002,0.001,0.003,0.003,0.003,0.002,0.003,0.001,0,0.001
567,0,0.001,0,0.002,0.001,0.003,0.003,0.003,0.002,0.003,0.001,0,0.001
568,0,0.001,0,0.002,0.001,0.003,0.003,0.003,0.002,0.003,0.001,0,0.001
569,0,0.001,0,0.002,0.001,0.003,0.003,0.003,0.002,0.003,0.001,0,0.001
570,0,0.001,0,0.002,0.001,0.003,0.003,0.002,0.002,0.003,0.001,0,0.001
571,0,0.001,0,0.002,0.001,0.003,0.003,0.003,0.002,0.003,0.001,0,0.001
572,0,0.001,0,0.002,0.001,0.003,0.003,0.002,0.002,0.003,0.001,0,0.001
573,0,0.001,0.001,0.002,0.001,0.003,0.003,0.003,0.002,0.003,0.001,0,0.001
574,0,0.001,0,0.002,0.001,0.003,0.003,0.002,0.002,0.003,0.001,0,0.001
575,0,0.001,0,0.002,0.001,0.003,0.003,0.002,0.002,0.003,0.001,0,0.001
576,0,0.001,0,0.002,0.001,0.003,0.003,0.002,0.002,0.003,0.001,0,0.001
577,0,0.001,0,0.002,0.001,0.003,0.003,0.002,0.002,0.003,0.001,0,0.001
578,0,0.001,0,0.002,0.001,0.003,0.003,0.002,0.002,0.003,0.001,0,0.001
579,0,0.001,0.001,0.002,0.001,0.003,0.003,0.003,0.002,0.003,0.001,0,0.001
580,0,0.001,0,0.002,0.001,0.003,0.003,0.002,0.002,0.003,0.001,0,0.001
581,0,0.001,0,0.002,0.001,0.003,0.003,0.003,0.002,0.003,0.001,0,0.001
582,0,0.001,0,0.002,0.001,0.002,0.003,0.002,0.002,0.003,0.001,0,0.001
583,0,0.001,0,0.002,0.001,0.002,0.003,0.002,0.002,0.003,0.001,0,0.001
584,0,0.001,0,0.002,0.001,0.002,0.003,0.002,0.002,0.003,0.001,0,0.001
585,0,0.001,0,0.002,0.001,0.002,0.003,0.002,0.002,0.003,0.001,0,0.001
586,0,0.001,0,0.002,0.001,0.002,0.003,0.002,0.002,0.003,0.001,0,0.001
587,0,0.001,0,0.002,0.001,0.002,0.003,0.002,0.002,0.003,0.001,0,0.001
588,0,0.001,0,0.002,0.001,0.002,0.003,0.002,0.002,0.003,0.001,0,0.001
589,0,0.001,0,0.002,0.001,0.002,0.003,0.002,0.002,0.003,0.001,0,0.001
590,0,0.001,0,0.001,0.001,0.002,0.003,0.002,0.002,0.003,0.001,0,0.001
591,0,0.001,0,0.002,0.001,0.002,0.003,0.002,0.002,0.003,0.001,0,0.001
592,0,0.001,0,0.002,0.001,0.002,0.003,0.002,0.002,0.003,0.001,0,0.001
593,0,0.001,0,0.002,0.001,0.002,0.003,0.002,0.002,0.003,0.001,0,0.001
594,0,0.001,0,0.002,0.001,0.002,0.003,0.002,0.002,0.003,0.001,0,0.001
595,0,0.001,0,0.001,0.001,0.002,0.003,0.002,0.002,0.003,0.001,0,0.001
596,0,0.001,0,0.001,0.001,0.002,0.003,0.002,0.002,0.003,0.001,0,0.001
597,0,0.001,0,0.001,0.001,0.002,0.003,0.002,0.002,0.002,0.001,0,0
598,0,0.001,0,0.001,0.001,0.002,0.003,0.002,0.002,0.002,0.001,0,0.001
599,0,0.001,0,0.001,0.001,0.002,0.003,0.002,0.002,0.003,0.001,0,0.001
600,0,0.001,0,0.001,0.001,0.002,0.003,0.002,0.002,0.003,0.001,0,0.001
601,0,0.001,0,0.001,0.001,0.002,0.003,0.002,0.002,0.003,0.001,0,0.001
602,0,0.001,0,0.001,0.001,0.002,0.003,0.002,0.002,0.003,0.001,0,0.001
603,0,0.001,0,0.001,0.001,0.002,0.003,0.002,0.002,0.003,0.001,0,0.001
604,0,0.001,0,0.001,0.001,0.002,0.003,0.002,0.002,0.003,0.001,0,0.001
605,0,0.001,0,0.001,0.001,0.002,0.003,0.002,0.002,0.002,0.001,0,0.001
606,0,0.001,0,0.001,0.001,0.002,0.003,0.002,0.002,0.003,0.001,0,0.001
607,0,0.001,0,0.001,0.001,0.002,0.003,0.002,0.002,0.002,0.001,0,0.001
608,0,0,0,0.001,0.001,0.002,0.002,0.002,0.002,0.002,0.001,0,0.001
609,0,0,0,0.001,0.001,0.002,0.002,0.002,0.002,0.002,0.001,0,0.001
610,0,0,0,0.001,0.001,0.002,0.002,0.002,0.002,0.002,0.001,0,0.001
611,0,0,0,0.001,0.001,0.002,0.002,0.002,0.002,0.002,0.001,0,0.001
612,0,0,0,0.001,0.001,0.002,0.002,0.002,0.002,0.002,0.001,0,0.001
613,0,0,0,0.001,0.001,0.002,0.002,0.002,0.002,0.002,0.001,0,0
614,0,0,0,0.001,0.001,0.002,0.002,0.002,0.002,0.002,0.001,0,0
615,0,0,0,0.001,0.001,0.002,0.002,0.002,0.002,0.002,0.001,0,0.001
616,0,0,0,0.001,0.001,0.002,0.002,0.002,0.002,0.002,0.001,0,0.001
617,0,0,0,0.001,0.001,0.002,0.002,0.002,0.002,0.002,0.001,0,0
618,0,0,0,0.001,0.001,0.002,0.002,0.002,0.002,0.002,0.001,0,0
619,0,0,0,0.001,0.001,0.002,0.002,0.002,0.002,0.002,0.001,0,0
620,0,0,0,0.001,0.001,0.002,0.002,0.002,0.002,0.002,0.001,0,0
621,0,0,0,0.001,0.001,0.002,0.002,0.002,0.002,0.002,0.001,0,0
622,0,0,0,0.001,0.001,0.002,0.002,0.002,0.002,0.002,0.001,0,0
623,0,0,0,0.001,0.001,0.002,0.002,0.002,0.001,0.002,0.001,0,0
624,0,0,0,0.001,0.001,0.002,0.002,0.002,0.001,0.002,0.001,0,0
625,0,0,0,0.001,0.001,0.002,0.002,0.002,0.001,0.002,0.001,0,0
626,0,0,0,0.001,0.001,0.002,0.002,0.002,0.001,0.002,0.001,0,0
627,0,0,0,0.001,0.001,0.002,0.002,0.002,0.001,0.002,0.001,0,0
628,0,0,0,0.001,0.001,0.002,0.002,0.002,0.001,0.002,0.001,0,0
629,0,0,0,0.001,0,0.002,0.002,0.002,0.001,0.002,0.001,0,0
630,0,0,0,0.001,0,0.002,0.002,0.002,0.001,0.002,0.001,0,0
631,0,0,0,0.001,0,0.002,0.002,0.002,0.001,0.002,0.001,0,0
632,0,0,0,0.001,0,0.002,0.002,0.002,0.001,0.002,0.001,0,0
633,0,0,0,0.001,0,0.002,0.002,0.002,0.001,0.002,0.001,0,0
634,0,0,0,0.001,0.001,0.002,0.002,0.002,0.001,0.002,0.001,0,0
635,0,0,0,0.001,0.001,0.002,0.002,0.002,0.001,0.002,0.001,0,0
636,0,0,0,0.001,0,0.002,0.002,0.002,0.001,0.002,0,0,0
637,0,0,0,0.001,0,0.002,0.002,0.002,0.001,0.002,0,0,0
638,0,0,0,0.001,0.001,0.002,0.002,0.002,0.001,0.002,0.001,0,0
639,0,0,0,0.001,0.001,0.002,0.002,0.002,0.001,0.002,0,0,0
640,0,0,0,0.001,0,0.002,0.002,0.002,0.001,0.002,0,0,0
641,0,0,0,0.001,0,0.001,0.002,0.001,0.001,0.002,0,0,0
642,0,0,0,0.001,0,0.002,0.002,0.002,0.001,0.002,0,0,0
643,0,0,0,0.001,0,0.002,0.002,0.002,0.001,0.002,0,0,0
644,0,0,0,0.001,0,0.002,0.002,0.002,0.001,0.002,0,0,0
645,0,0,0,0.001,0,0.002,0.002,0.002,0.001,0.002,0.001,0,0
646,0,0,0,0.001,0.001,0.002,0.002,0.002,0.001,0.002,0.001,0,0
647,0,0,0,0.001,0.001,0.002,0.002,0.002,0.001,0.002,0.001,0,0
648,0,0,0,0.001,0.001,0.002,0.002,0.002,0.001,0.002,0,0,0
649,0,0,0,0.001,0.001,0.002,0.002,0.002,0.001,0.002,0.001,0,0
650,0,0,0,0.001,0,0.002,0.002,0.002,0.001,0.002,0.001,0,0
651,0,0,0,0.001,0,0.002,0.002,0.002,0.001,0.002,0.001,0,0
652,0,0,0,0.001,0,0.002,0.002,0.002,0.001,0.002,0,0,0
653,0,0,0,0.001,0,0.002,0.002,0.001,0.001,0.002,0,0,0
654,0,0,0,0.001,0.001,0.002,0.002,0.002,0.001,0.002,0.001,0,0
655,0,0,0,0.001,0.001,0.002,0.002,0.002,0.001,0.002,0,0,0
656,0,0,0,0.001,0.001,0.002,0.002,0.002,0.001,0.002,0.001,0,0
657,0,0,0,0.001,0.001,0.002,0.002,0.002,0.001,0.002,0.001,0,0
658,0,0,0,0.001,0.001,0.002,0.002,0.002,0.001,0.002,0,0,0
659,0,0,0,0.001,0.001,0.002,0.002,0.002,0.001,0.002,0.001,0,0
660,0,0,0,0.001,0.001,0.002,0.002,0.002,0.001,0.002,0,0,0
661,0,0,0,0.001,0.001,0.002,0.002,0.002,0.001,0.002,0.001,0,0
662,0,0,0,0.001,0.001,0.002,0.002,0.002,0.001,0.002,0.001,0,0
663,0,0,0,0.001,0.001,0.002,0.002,0.002,0.001,0.002,0.001,0,0
664,0,0,0,0.001,0.001,0.002,0.002,0.002,0.001,0.002,0.001,0,0
665,0,0,0,0.001,0.001,0.002,0.002,0.001,0.001,0.002,0,0,0
666,0,0,0,0.001,0.001,0.002,0.002,0.001,0.001,0.002,0,0,0
667,0,0,0,0.001,0.001,0.002,0.002,0.002,0.001,0.002,0,0,0
668,0,0,0,0.001,0.001,0.002,0.002,0.001,0.001,0.002,0,0,0
669,0,0,0,0.001,0.001,0.002,0.002,0.001,0.001,0.002,0,0,0
670,0,0,0,0.001,0.001,0.002,0.002,0.001,0.001,0.002,0,0,0
671,0,0,0,0.001,0.001,0.002,0.002,0.001,0.001,0.002,0,0,0
672,0,0,0,0.001,0.001,0.002,0.002,0.002,0.001,0.002,0,0,0
673,0,0,0,0.001,0.001,0.002,0.002,0.001,0.001,0.002,0,0,0
674,0,0,0,0.001,0.001,0.002,0.002,0.001,0.001,0.002,0,0,0
675,0,0,0,0.001,0.001,0.002,0.002,0.002,0.001,0.002,0.001,0,0
676,0,0,0,0.001,0.001,0.002,0.002,0.002,0.001,0.002,0.001,0,0
677,0,0,0,0.001,0.001,0.002,0.002,0.001,0.001,0.002,0,0,0
678,0,0,0,0.001,0.001,0.002,0.002,0.002,0.001,0.002,0.001,0,0
679,0,0,0,0.001,0.001,0.002,0.002,0.002,0.001,0.002,0.001,0,0
680,0,0,0,0.001,0.001,0.002,0.002,0.002,0.001,0.002,0.001,0,0
681,0,0,0,0.001,0.001,0.002,0.002,0.001,0.001,0.002,0,0,0
682,0,0,0,0.001,0.001,0.002,0.002,0.001,0.001,0.002,0,0,0
683,0,0,0,0.001,0.001,0.002,0.002,0.001,0.001,0.002,0,0,0
684,0,0,0,0.001,0.001,0.002,0.002,0.001,0.001,0.002,0,0,0
685,0,0,0,0.001,0.001,0.002,0.002,0.002,0.001,0.002,0.001,0,0
686,0,0,0,0.001,0.001,0.002,0.002,0.002,0.001,0.002,0.001,0,0
687,0,0,0,0.001,0.001,0.002,0.002,0.002,0.001,0.002,0.001,0,0
688,0,0,0,0.001,0.001,0.002,0.002,0.001,0.001,0.002,0,0,0
689,0,0,0,0.001,0.001,0.002,0.002,0.002,0.001,0.002,0.001,0,0
690,0,0,0,0.001,0.001,0.002,0.002,0.001,0.001,0.002,0,0,0
691,0,0,0,0.001,0.001,0.002,0.002,0.002,0.001,0.002,0.001,0,0
692,0,0,0,0.001,0.001,0.002,0.002,0.002,0.001,0.002,0.001,0,0
693,0,0,0,0.001,0.001,0.002,0.002,0.002,0.001,0.002,0.001,0,0
694,0,0,0,0.001,0.001,0.002,0.002,0.002,0.001,0.002,0.001,0,0
695,0,0,0,0.001,0.001,0.002,0.002,0.002,0.001,0.002,0.001,0,0
696,0,0,0,0.001,0.001,0.002,0.002,0.002,0.001,0.002,0.001,0,0
697,0,0,0,0.001,0.001,0.002,0.002,0.002,0.001,0.002,0,0,0
698,0,0,0,0.001,0.001,0.002,0.002,0.002,0.001,0.002,0.001,0,0
699,0,0,0,0.001,0.001,0.002,0.002,0.002,0.001,0.002,0,0,0
700,0,0,0,0.001,0.001,0.002,0.002,0.002,0.001,0.002,0.001,0,0
701,0,0,0,0.001,0.001,0.002,0.002,0.002,0.001,0.002,0.001,0,0
702,0,0,0,0.001,0.001,0.002,0.002,0.002,0.001,0.002,0.001,0,0
703,0,0,0,0.001,0.001,0.002,0.002,0.002,0.001,0.002,0.001,0,0
704,0,0,0,0.001,0,0.002,0.002,0.002,0.001,0.002,0.001,0,0
705,0,0,0,0.001,0,0.002,0.002,0.002,0.001,0.002,0.001,0,0
706,0,0,0,0.001,0.001,0.002,0.002,0.002,0.001,0.002,0.001,0,0
707,0,0,0,0.001,0,0.002,0.002,0.001,0.001,0.002,0.001,0,0
708,0,0,0,0.001,0.001,0.002,0.002,0.001,0.001,0.002,0.001,0,0
709,0,0,0,0.001,0.001,0.002,0.002,0.002,0.001,0.002,0.001,0,0
710,0,0,0,0.001,0,0.002,0.002,0.002,0.001,0.002,0.001,0,0
711,0,0,0,0.001,0,0.002,0.002,0.002,0.001,0.002,0.001,0,0
712,0,0,0,0.001,0,0.002,0.002,0.002,0.001,0.002,0.001,0,0
713,0,0,0,0.001,0,0.002,0.002,0.002,0.001,0.002,0.001,0,0
714,0,0,0,0.001,0,0.002,0.002,0.002,0.001,0.002,0.001,0,0
715,0,0,0,0.001,0,0.002,0.002,0.002,0.001,0.002,0.001,0,0
716,0,0,0,0.001,0,0.002,0.002,0.002,0.001,0.002,0.001,0,0
717,0,0,0,0.001,0,0.002,0.002,0.001,0.001,0.002,0,0,0
718,0,0,0,0.001,0,0.002,0.002,0.001,0.001,0.002,0,0,0
719,0,0,0,0.001,0,0.002,0.002,0.002,0.001,0.002,0,0,0
720,0,0,0,0.001,0,0.002,0.002,0.002,0.001,0.002,0,0,0
721,0,0,0,0.001,0,0.002,0.002,0.002,0.001,0.002,0.001,0,0
722,0,0,0,0.001,0,0.002,0.002,0.001,0.001,0.002,0,0,0
723,0,0,0,0.001,0,0.002,0.002,0.002,0.001,0.002,0.001,0,0
724,0,0,0,0.001,0,0.002,0.002,0.002,0.001,0.002,0,0,0
725,0,0,0,0.001,0,0.002,0.002,0.001,0.001,0.002,0.001,0,0
726,0,0,0,0.001,0,0.002,0.002,0.001,0.001,0.002,0.001,0,0
727,0,0,0,0.001,0,0.002,0.002,0.002,0.001,0.002,0.001,0,0
728,0,0,0,0.001,0,0.002,0.002,0.001,0.001,0.002,0,0,0
729,0,0,0,0.001,0,0.002,0.002,0.002,0.001,0.002,0.001,0,0
730,0,0,0,0.001,0,0.002,0.002,0.001,0.001,0.002,0.001,0,0
731,0,0,0,0.001,0,0.002,0.002,0.002,0.001,0.002,0.001,0,0
732,0,0,0,0.001,0,0.002,0.002,0.001,0.001,0.002,0,0,0
733,0,0,0,0.001,0,0.002,0.002,0.001,0.001,0.002,0,0,0
734,0,0,0,0.001,0,0.001,0.002,0.001,0.001,0.001,0,0,0
735,0,0,0,0.001,0,0.002,0.002,0.001,0.001,0.002,0,0,0
736,0,0,0,0.001,0,0.002,0.002,0.001,0.001,0.002,0.001,0,0
737,0,0,0,0.001,0,0.002,0.002,0.001,0.001,0.002,0,0,0
738,0,0,0,0.001,0,0.002,0.002,0.001,0.001,0.002,0,0,0
739,0,0,0,0.001,0,0.002,0.002,0.001,0.001,0.002,0.001,0,0
740,0,0,0,0.001,0,0.002,0.002,0.002,0.001,0.002,0.001,0,0
741,0,0,0,0.001,0,0.002,0.002,0.001,0.001,0.002,0.001,0,0
742,0,0,0,0.001,0,0.002,0.002,0.001,0.001,0.002,0,0,0
743,0,0,0,0.001,0.001,0.002,0.002,0.002,0.001,0.002,0,0,0
744,0,0,0,0.001,0,0.002,0.002,0.002,0.001,0.002,0,0,0
745,0,0,0,0.001,0,0.002,0.002,0.002,0.001,0.002,0.001,0,0
746,0,0,0,0.001,0,0.002,0.002,0.001,0.001,0.002,0.001,0,0
747,0,0,0,0.001,0,0.002,0.002,0.001,0.001,0.002,0,0,0
748,0,0,0,0.001,0,0.002,0.002,0.001,0.001,0.002,0,0,0
749,0,0,0,0.001,0,0.002,0.002,0.001,0.001,0.002,0,0,0
750,0,0,0,0.001,0,0.002,0.002,0.002,0.001,0.002,0.001,0,0
751,0,0,0,0.001,0,0.002,0.002,0.001,0.001,0.002,0,0,0
752,0,0,0,0.001,0,0.002,0.002,0.001,0.001,0.002,0,0,0
753,0,0,0,0.001,0.001,0.002,0.002,0.001,0.001,0.002,0.001,0,0
754,0,0,0,0.001,0.001,0.002,0.002,0.001,0.001,0.002,0,0,0
755,0,0,0,0.001,0.001,0.002,0.002,0.002,0.001,0.002,0.001,0,0
756,0,0,0,0.001,0.001,0.002,0.002,0.002,0.001,0.002,0,0,0
757,0,0,0,0.001,0.001,0.002,0.002,0.001,0.001,0.002,0,0,0
758,0,0,0,0.001,0.001,0.002,0.002,0.002,0.001,0.002,0.001,0,0
759,0,0.001,0,0.001,0.001,0.002,0.002,0.002,0.001,0.002,0.001,0,0.001
760,0.001,0.002,0.001,0.002,0.002,0.003,0.003,0.003,0.002,0.003,0.002,0.001,0.002
761,0,0.001,0,0.001,0.001,0.002,0.002,0.002,0.001,0.002,0.001,0,0.001
762,0,0,0,0.001,0,0.002,0.002,0.001,0.001,0.001,0,0,0
763,0,0,0,0.001,0,0.002,0.002,0.001,0.001,0.001,0,0,0
764,0,0,0,0.001,0,0.002,0.002,0.001,0.001,0.002,0,0,0
765,0,0,0,0.001,0,0.002,0.002,0.001,0.001,0.001,0,0,0
766,0,0,0,0.001,0.001,0.002,0.002,0.001,0.001,0.001,0,0,0
767,0,0,0,0.001,0.001,0.002,0.002,0.001,0.001,0.001,0,0,0
768,0,0,0,0.001,0.001,0.002,0.002,0.002,0.001,0.002,0,0,0.001
769,0,0,0,0.001,0.001,0.002,0.002,0.002,0.001,0.002,0,0,0
770,0,0,0,0.001,0.001,0.002,0.002,0.002,0.001,0.002,0,0,0
771,0,0,0,0.001,0.001,0.002,0.002,0.002,0.001,0.002,0.001,0,0
772,0,0,0,0.001,0.001,0.002,0.002,0.001,0.001,0.002,0.001,0,0
773,0,0,0,0.001,0.001,0.002,0.002,0.001,0.001,0.002,0.001,0,0
774,0,0,0,0.001,0.001,0.002,0.002,0.001,0.001,0.002,0.001,0,0
775,0,0,0,0.001,0.001,0.002,0.002,0.001,0.001,0.002,0,0,0
776,0,0,0,0.001,0.001,0.002,0.002,0.001,0.001,0.002,0.001,0,0
777,0,0,0,0.001,0.001,0.002,0.002,0.002,0.001,0.002,0.001,0,0
778,0,0,0,0.001,0.001,0.002,0.002,0.002,0.001,0.002,0.001,0,0
779,0,0.001,0,0.001,0.001,0.002,0.002,0.002,0.001,0.002,0.001,0,0
780,0,0.001,0,0.001,0.001,0.002,0.002,0.001,0.001,0.002,0,0,0
781,0,0.001,0,0.001,0.001,0.002,0.002,0.001,0.001,0.001,0,0,0
782,0,0.001,0,0.001,0.001,0.002,0.002,0.001,0.001,0.001,0,0,0
783,0,0,0,0.001,0.001,0.002,0.002,0.001,0.001,0.001,0,0,0
784,0,0,0,0.001,0.001,0.002,0.002,0.001,0.001,0.001,0,0,0
785,0,0.001,0,0.001,0.001,0.002,0.002,0.001,0.001,0.002,0.001,0,0
786,0,0.001,0,0.001,0.001,0.002,0.002,0.001,0.001,0.002,0,0,0
787,0,0,0,0.001,0.001,0.002,0.002,0.001,0.001,0.002,0,0,0
788,0,0,0,0.001,0.001,0.002,0.002,0.001,0.001,0.001,0,0,0
789,0,0.001,0,0.001,0.001,0.002,0.002,0.001,0.001,0.002,0.001,0,0.001
790,0,0.001,0,0.001,0.001,0.002,0.002,0.001,0.001,0.002,0,0,0
791,0,0,0,0.001,0.001,0.002,0.002,0.001,0.001,0.001,0.001,0,0
792,0,0.001,0,0.001,0.001,0.002,0.002,0.001,0.001,0.001,0.001,0,0
793,0,0.001,0,0.001,0.001,0.002,0.002,0.001,0.001,0.002,0.001,0,0
794,0,0,0,0.001,0.001,0.002,0.002,0.001,0.001,0.002,0,0,0
795,0,0.001,0,0.001,0.001,0.002,0.002,0.001,0.001,0.002,0.001,0,0
796,0,0.001,0,0.001,0.001,0.002,0.002,0.001,0.001,0.002,0.001,0,0
797,0,0,0,0.001,0.001,0.002,0.002,0.001,0.001,0.002,0.001,0,0
798,0,0,0,0.001,0.001,0.002,0.002,0.001,0.001,0.001,0.001,0,0
799,0,0,0,0.001,0.001,0.002,0.002,0.001,0.001,0.002,0.001,0,0
800,0,0,0,0.001,0.001,0.002,0.002,0.001,0.001,0.001,0,0,0
801,0,0,0,0.001,0.001,0.002,0.002,0.001,0.001,0.001,0.001,0,0
802,0,0.001,0,0.001,0.001,0.002,0.002,0.001,0.001,0.002,0.001,0,0
803,0,0.001,0,0.001,0.001,0.002,0.002,0.001,0.001,0.001,0.001,0,0
804,0,0.001,0,0.001,0.001,0.002,0.002,0.001,0.001,0.001,0.001,0,0
805,0,0.001,0,0.001,0.001,0.002,0.002,0.001,0.001,0.001,0.001,0,0
806,0,0.001,0,0.001,0.001,0.002,0.002,0.001,0.001,0.002,0.001,0,0
807,0,0.001,0,0.001,0.001,0.002,0.002,0.001,0.001,0.002,0.001,0,0
808,0,0.001,0,0.001,0.001,0.002,0.002,0.001,0.001,0.002,0.001,0,0
809,0,0,0,0.001,0.001,0.002,0.002,0.001,0.001,0.002,0,0,0
810,0,0.001,0,0.001,0.001,0.002,0.002,0.001,0.001,0.002,0.001,0,0
811,0,0,0,0.001,0.001,0.002,0.002,0.001,0.001,0.001,0,0,0
812,0,0,0,0.001,0.001,0.002,0.002,0.001,0.001,0.001,0,0,0
813,0,0,0,0.001,0.001,0.002,0.002,0.001,0.001,0.001,0,0,0
814,0,0,0,0.001,0.001,0.002,0.002,0.001,0.001,0.002,0.001,0,0
815,0,0,0,0.001,0.001,0.002,0.002,0.001,0.001,0.001,0.001,0,0
816,0,0.001,0,0.001,0.001,0.002,0.002,0.001,0.001,0.001,0.001,0,0.001
817,0,0.001,0,0.001,0.001,0.002,0.002,0.001,0.001,0.001,0.001,0,0.001
818,0,0.001,0,0.001,0.001,0.002,0.002,0.001,0.001,0.002,0.001,0,0.001
819,0,0,0,0.001,0.001,0.002,0.002,0.001,0.001,0.001,0.001,0,0.001
820,0,0,0,0.001,0.001,0.002,0.002,0.001,0.001,0.001,0.001,0,0
821,0,0,0,0.001,0.001,0.002,0.002,0.001,0.001,0.001,0,0,0
822,0,0,0,0.001,0.001,0.002,0.002,0.001,0.001,0.001,0,0,0
823,0,0,0,0.001,0.001,0.002,0.002,0.001,0.001,0.001,0.001,0,0
824,0,0,0,0.001,0,0.002,0.002,0.001,0.001,0.001,0,0,0
825,0,0,0,0.001,0.001,0.002,0.002,0.001,0.001,0.001,0,0,0
826,0,0,0,0.001,0.001,0.002,0.002,0.001,0.001,0.002,0.001,0,0
827,0,0,0,0.001,0.001,0.002,0.002,0.001,0.001,0.001,0.001,0,0
828,0,0,0,0.001,0.001,0.002,0.002,0.001,0.001,0.001,0.001,0,0
829,0,0,0,0.001,0,0.002,0.002,0.001,0.001,0.001,0,0,0
830,0,0,0,0.001,0,0.001,0.001,0.001,0.001,0.001,0,0,0
831,0,0,0,0.001,0,0.001,0.001,0.001,0.001,0.001,0,0,0
832,0,0,0,0.001,0,0.002,0.001,0.001,0.001,0.001,0,0,0
833,0,0,0,0.001,0,0.001,0.001,0.001,0.001,0.001,0,0,0
834,0,0,0,0.001,0,0.002,0.001,0.001,0.001,0.001,0,0,0
835,0,0,0,0.001,0,0.001,0.001,0.001,0.001,0.001,0,0,0
836,0,0,0,0.001,0,0.001,0.002,0.001,0.001,0.001,0,0,0
837,0,0,0,0.001,0,0.002,0.002,0.001,0.001,0.001,0,0,0
838,0,0,0,0.001,0,0.002,0.002,0.001,0.001,0.001,0,0,0
839,0,0,0,0.001,0,0.001,0.002,0.001,0.001,0.001,0,0,0
840,0,0,0,0.001,0,0.001,0.001,0.001,0.001,0.001,0,0,0
841,0,0,0,0.001,0,0.001,0.001,0.001,0.001,0.001,0,0,0
842,0,0,0,0.001,0,0.001,0.001,0.001,0.001,0.001,0,0,0
843,0,0,0,0.001,0,0.001,0.001,0.001,0.001,0.001,0.001,0,0
844,0,0,0,0.001,0,0.001,0.001,0.001,0.001,0.001,0.001,0,0
845,0,0,0,0.001,0,0.001,0.001,0.001,0.001,0.001,0,0,0
846,0,0,0,0.001,0,0.001,0.001,0.001,0.001,0.001,0,0,0
847,0,0,0,0.001,0,0.001,0.001,0.001,0.001,0.001,0,0,0
848,0,0,0,0.001,0,0.001,0.001,0.001,0.001,0.001,0,0,0
849,0,0,0,0.001,0,0.001,0.001,0.001,0.001,0.001,0,0,0
850,0,0,0,0.001,0,0.001,0.001,0.001,0.001,0.001,0,0,0
