Wavelength nm.	RawData ...	RawData ...	RawData ...	RawData ...	RawData ...	RawData ...	RawData ...	RawData ...	RawData ...	RawData ...	RawData ...	RawData ...	RawData ...
190.00	0.010	0.440	0.411	0.414	0.417	0.260	0.258	0.248	0.247	0.259	0.440	0.412	0.151
191.00	0.006	0.401	0.375	0.378	0.387	0.250	0.246	0.236	0.233	0.246	0.401	0.379	0.140
192.00	0.007	0.365	0.344	0.348	0.357	0.240	0.235	0.226	0.223	0.236	0.367	0.347	0.134
193.00	0.006	0.331	0.310	0.316	0.325	0.230	0.223	0.216	0.214	0.225	0.331	0.314	0.128
194.00	0.005	0.304	0.284	0.291	0.299	0.223	0.215	0.209	0.206	0.217	0.303	0.289	0.123
195.00	0.006	0.278	0.260	0.269	0.276	0.217	0.209	0.202	0.200	0.210	0.278	0.265	0.119
196.00	0.006	0.256	0.240	0.249	0.256	0.211	0.203	0.197	0.194	0.203	0.256	0.244	0.115
197.00	0.006	0.237	0.223	0.232	0.238	0.206	0.197	0.192	0.190	0.198	0.237	0.226	0.112
198.00	0.005	0.221	0.208	0.217	0.223	0.201	0.192	0.187	0.184	0.194	0.221	0.210	0.109
199.00	0.005	0.206	0.195	0.205	0.211	0.198	0.189	0.184	0.181	0.190	0.207	0.196	0.107
200.00	0.005	0.195	0.185	0.194	0.200	0.194	0.185	0.181	0.178	0.186	0.195	0.185	0.105
201.00	0.005	0.184	0.175	0.184	0.189	0.190	0.182	0.177	0.175	0.182	0.183	0.175	0.102
202.00	0.005	0.175	0.166	0.176	0.181	0.188	0.179	0.175	0.172	0.179	0.174	0.166	0.100
203.00	0.004	0.167	0.159	0.169	0.173	0.185	0.176	0.172	0.169	0.176	0.166	0.159	0.099
204.00	0.004	0.160	0.153	0.162	0.166	0.182	0.173	0.170	0.167	0.174	0.159	0.153	0.097
205.00	0.004	0.153	0.147	0.156	0.160	0.179	0.170	0.167	0.164	0.171	0.153	0.147	0.095
206.00	0.004	0.148	0.142	0.151	0.154	0.176	0.167	0.164	0.162	0.168	0.147	0.141	0.093
207.00	0.004	0.143	0.137	0.146	0.149	0.173	0.164	0.162	0.159	0.165	0.142	0.137	0.091
208.00	0.003	0.138	0.133	0.142	0.145	0.171	0.162	0.159	0.156	0.162	0.137	0.132	0.089
209.00	0.003	0.133	0.128	0.137	0.140	0.167	0.159	0.156	0.153	0.159	0.133	0.128	0.087
210.00	0.003	0.130	0.125	0.134	0.136	0.165	0.156	0.153	0.151	0.157	0.129	0.124	0.086
211.00	0.003	0.126	0.121	0.130	0.132	0.162	0.153	0.151	0.148	0.154	0.125	0.120	0.084
212.00	0.003	0.122	0.117	0.127	0.128	0.159	0.150	0.148	0.145	0.151	0.121	0.117	0.081
213.00	0.003	0.118	0.113	0.123	0.125	0.156	0.147	0.145	0.143	0.148	0.117	0.113	0.079
214.00	0.003	0.114	0.110	0.120	0.121	0.153	0.144	0.143	0.140	0.145	0.114	0.110	0.077
215.00	0.003	0.110	0.106	0.116	0.117	0.150	0.141	0.140	0.137	0.143	0.110	0.106	0.076
216.00	0.003	0.107	0.103	0.112	0.114	0.147	0.138	0.137	0.134	0.140	0.107	0.103	0.073
217.00	0.002	0.103	0.100	0.109	0.110	0.145	0.136	0.135	0.132	0.137	0.103	0.100	0.072
218.00	0.002	0.101	0.097	0.107	0.107	0.143	0.134	0.133	0.130	0.135	0.101	0.097	0.070
219.00	0.002	0.098	0.094	0.104	0.104	0.140	0.132	0.131	0.127	0.133	0.098	0.094	0.069
220.00	0.002	0.095	0.091	0.101	0.102	0.138	0.129	0.129	0.125	0.131	0.095	0.091	0.067
221.00	0.002	0.092	0.088	0.098	0.099	0.136	0.127	0.126	0.123	0.128	0.092	0.089	0.066
222.00	0.003	0.090	0.086	0.096	0.096	0.134	0.125	0.124	0.121	0.126	0.090	0.086	0.064
223.00	0.002	0.087	0.084	0.094	0.094	0.132	0.123	0.123	0.119	0.124	0.088	0.084	0.063
224.00	0.002	0.085	0.081	0.091	0.091	0.130	0.121	0.121	0.117	0.122	0.085	0.081	0.062
225.00	0.002	0.083	0.079	0.089	0.089	0.128	0.119	0.119	0.116	0.121	0.083	0.079	0.060
226.00	0.002	0.081	0.077	0.087	0.087	0.126	0.117	0.117	0.114	0.118	0.081	0.077	0.059
227.00	0.002	0.079	0.075	0.085	0.085	0.124	0.115	0.115	0.112	0.117	0.079	0.075	0.058
228.00	0.002	0.077	0.073	0.083	0.083	0.122	0.114	0.113	0.110	0.115	0.077	0.073	0.057
229.00	0.002	0.075	0.072	0.081	0.081	0.120	0.112	0.112	0.108	0.113	0.075	0.072	0.056
230.00	0.002	0.073	0.070	0.080	0.079	0.118	0.110	0.110	0.106	0.111	0.073	0.070	0.055
231.00	0.002	0.071	0.068	0.078	0.078	0.116	0.108	0.108	0.105	0.109	0.072	0.069	0.054
232.00	0.002	0.070	0.067	0.076	0.076	0.115	0.106	0.106	0.103	0.108	0.070	0.067	0.053
233.00	0.002	0.068	0.065	0.075	0.075	0.113	0.105	0.105	0.102	0.106	0.069	0.066	0.052
234.00	0.002	0.067	0.064	0.074	0.073	0.111	0.103	0.103	0.100	0.105	0.067	0.064	0.051
235.00	0.002	0.066	0.063	0.072	0.072	0.109	0.102	0.102	0.099	0.103	0.066	0.063	0.050
236.00	0.002	0.064	0.062	0.071	0.070	0.108	0.100	0.100	0.097	0.101	0.065	0.062	0.049
237.00	0.002	0.063	0.061	0.070	0.069	0.106	0.099	0.099	0.096	0.100	0.064	0.061	0.048
238.00	0.002	0.062	0.060	0.069	0.068	0.105	0.097	0.097	0.094	0.099	0.063	0.060	0.048
239.00	0.002	0.061	0.059	0.068	0.067	0.103	0.096	0.096	0.093	0.097	0.062	0.059	0.047
240.00	0.002	0.060	0.058	0.067	0.066	0.102	0.095	0.095	0.092	0.096	0.061	0.058	0.047
241.00	0.002	0.059	0.057	0.066	0.065	0.100	0.093	0.093	0.090	0.095	0.060	0.057	0.046
242.00	0.002	0.059	0.056	0.065	0.064	0.099	0.092	0.092	0.089	0.094	0.059	0.057	0.045
243.00	0.002	0.058	0.056	0.064	0.064	0.098	0.091	0.091	0.088	0.093	0.059	0.056	0.045
244.00	0.002	0.057	0.055	0.064	0.063	0.097	0.090	0.090	0.087	0.091	0.058	0.055	0.044
245.00	0.002	0.057	0.054	0.063	0.062	0.096	0.089	0.089	0.086	0.090	0.057	0.055	0.043
246.00	0.002	0.056	0.054	0.062	0.061	0.094	0.087	0.088	0.085	0.089	0.056	0.054	0.043
247.00	0.002	0.055	0.053	0.061	0.060	0.093	0.086	0.086	0.084	0.088	0.056	0.053	0.042
248.00	0.001	0.055	0.052	0.061	0.060	0.092	0.085	0.086	0.083	0.087	0.055	0.053	0.042
249.00	0.001	0.054	0.052	0.060	0.059	0.091	0.085	0.085	0.082	0.087	0.054	0.052	0.041
250.00	0.001	0.053	0.051	0.060	0.059	0.090	0.084	0.084	0.081	0.086	0.054	0.052	0.041
251.00	0.001	0.053	0.051	0.059	0.058	0.089	0.083	0.083	0.080	0.085	0.053	0.051	0.040
252.00	0.001	0.053	0.051	0.058	0.058	0.088	0.082	0.082	0.080	0.084	0.053	0.051	0.040
253.00	0.001	0.052	0.050	0.058	0.057	0.088	0.081	0.081	0.079	0.083	0.053	0.050	0.040
254.00	0.001	0.051	0.049	0.057	0.057	0.087	0.080	0.081	0.078	0.083	0.052	0.050	0.039
255.00	0.001	0.051	0.049	0.057	0.056	0.086	0.080	0.080	0.077	0.082	0.052	0.050	0.039
256.00	0.001	0.051	0.049	0.057	0.056	0.085	0.079	0.079	0.077	0.081	0.051	0.049	0.038
257.00	0.001	0.050	0.048	0.056	0.055	0.085	0.078	0.078	0.076	0.080	0.051	0.049	0.038
258.00	0.001	0.050	0.048	0.056	0.055	0.084	0.078	0.078	0.075	0.080	0.050	0.048	0.037
259.00	0.001	0.049	0.047	0.055	0.054	0.083	0.077	0.077	0.075	0.079	0.050	0.048	0.037
260.00	0.001	0.049	0.047	0.054	0.054	0.082	0.076	0.077	0.074	0.078	0.049	0.047	0.037
261.00	0.001	0.049	0.047	0.054	0.053	0.082	0.076	0.076	0.073	0.078	0.049	0.047	0.037
262.00	0.001	0.048	0.046	0.054	0.053	0.081	0.075	0.075	0.073	0.077	0.049	0.047	0.036
263.00	0.001	0.048	0.046	0.053	0.052	0.080	0.075	0.074	0.072	0.076	0.048	0.046	0.036
264.00	0.001	0.047	0.045	0.053	0.052	0.079	0.074	0.074	0.071	0.076	0.047	0.045	0.035
265.00	0.001	0.046	0.045	0.052	0.051	0.079	0.073	0.073	0.071	0.075	0.047	0.045	0.035
266.00	0.001	0.046	0.044	0.051	0.050	0.078	0.072	0.072	0.070	0.074	0.046	0.044	0.035
267.00	0.001	0.045	0.044	0.051	0.050	0.077	0.072	0.072	0.069	0.073	0.046	0.044	0.034
268.00	0.001	0.045	0.043	0.050	0.049	0.076	0.071	0.071	0.068	0.072	0.045	0.043	0.034
269.00	0.001	0.044	0.043	0.050	0.049	0.076	0.070	0.070	0.068	0.072	0.044	0.042	0.033
270.00	0.001	0.043	0.042	0.049	0.048	0.075	0.070	0.069	0.067	0.071	0.044	0.042	0.033
271.00	0.001	0.043	0.041	0.048	0.047	0.074	0.069	0.069	0.066	0.070	0.043	0.041	0.032
272.00	0.001	0.042	0.040	0.047	0.047	0.073	0.068	0.068	0.066	0.069	0.042	0.041	0.032
273.00	0.001	0.041	0.040	0.047	0.046	0.072	0.067	0.067	0.065	0.069	0.041	0.040	0.032
274.00	0.001	0.041	0.039	0.046	0.045	0.072	0.067	0.067	0.064	0.068	0.041	0.039	0.032
275.00	0.001	0.040	0.039	0.046	0.044	0.071	0.066	0.066	0.064	0.067	0.040	0.038	0.031
276.00	0.001	0.039	0.038	0.045	0.044	0.070	0.065	0.065	0.063	0.067	0.040	0.038	0.031
277.00	0.001	0.039	0.037	0.044	0.043	0.069	0.064	0.065	0.062	0.066	0.039	0.037	0.030
278.00	0.001	0.038	0.037	0.043	0.042	0.069	0.064	0.064	0.061	0.065	0.038	0.036	0.030
279.00	0.001	0.037	0.036	0.043	0.042	0.068	0.063	0.063	0.060	0.064	0.037	0.036	0.030
280.00	0.001	0.036	0.035	0.042	0.041	0.067	0.062	0.062	0.060	0.063	0.037	0.035	0.029
281.00	0.001	0.036	0.034	0.041	0.040	0.066	0.061	0.061	0.059	0.062	0.036	0.034	0.029
282.00	0.001	0.035	0.034	0.040	0.039	0.066	0.061	0.061	0.058	0.062	0.035	0.034	0.028
283.00	0.001	0.034	0.033	0.040	0.039	0.065	0.060	0.060	0.058	0.061	0.035	0.033	0.028
284.00	0.001	0.034	0.032	0.039	0.038	0.064	0.059	0.059	0.057	0.060	0.034	0.032	0.027
285.00	0.001	0.033	0.031	0.038	0.037	0.063	0.058	0.058	0.056	0.059	0.033	0.031	0.027
286.00	0.001	0.032	0.031	0.038	0.037	0.062	0.058	0.058	0.055	0.059	0.033	0.031	0.027
287.00	0.001	0.032	0.030	0.037	0.036	0.061	0.057	0.057	0.054	0.058	0.032	0.030	0.026
288.00	0.001	0.031	0.029	0.036	0.035	0.060	0.056	0.056	0.054	0.057	0.031	0.029	0.026
289.00	0.001	0.031	0.029	0.035	0.035	0.060	0.055	0.055	0.053	0.056	0.030	0.028	0.026
290.00	0.001	0.030	0.028	0.035	0.034	0.059	0.054	0.055	0.052	0.055	0.030	0.028	0.025
291.00	0.001	0.029	0.027	0.034	0.033	0.058	0.054	0.054	0.052	0.055	0.029	0.027	0.025
292.00	0.001	0.029	0.027	0.033	0.033	0.057	0.053	0.053	0.051	0.054	0.028	0.027	0.024
293.00	0.001	0.028	0.026	0.033	0.032	0.056	0.052	0.053	0.050	0.053	0.028	0.026	0.024
294.00	0.001	0.027	0.026	0.032	0.031	0.055	0.052	0.052	0.049	0.052	0.027	0.025	0.024
295.00	0.001	0.027	0.025	0.032	0.031	0.055	0.051	0.051	0.049	0.052	0.027	0.025	0.024
296.00	0.001	0.026	0.025	0.031	0.030	0.054	0.050	0.050	0.048	0.051	0.026	0.024	0.023
297.00	0.001	0.026	0.024	0.030	0.030	0.053	0.050	0.050	0.047	0.050	0.026	0.024	0.023
298.00	0.001	0.025	0.024	0.030	0.029	0.053	0.049	0.049	0.047	0.050	0.025	0.023	0.022
299.00	0.001	0.025	0.023	0.029	0.029	0.052	0.049	0.049	0.046	0.049	0.025	0.023	0.022
300.00	0.001	0.024	0.023	0.029	0.028	0.052	0.048	0.048	0.046	0.049	0.024	0.023	0.022
301.00	0.001	0.024	0.022	0.029	0.028	0.051	0.047	0.048	0.045	0.048	0.024	0.022	0.022
302.00	0.001	0.023	0.022	0.028	0.027	0.050	0.047	0.047	0.045	0.047	0.023	0.022	0.021
303.00	0.001	0.022	0.021	0.027	0.026	0.049	0.046	0.046	0.044	0.046	0.023	0.021	0.021
304.00	0.001	0.022	0.021	0.027	0.026	0.049	0.045	0.046	0.043	0.046	0.022	0.020	0.020
305.00	0.001	0.022	0.020	0.026	0.026	0.048	0.045	0.045	0.043	0.045	0.022	0.020	0.020
306.00	0.001	0.021	0.020	0.026	0.025	0.048	0.044	0.044	0.042	0.045	0.021	0.020	0.020
307.00	0.001	0.021	0.019	0.025	0.025	0.047	0.043	0.044	0.041	0.044	0.021	0.019	0.019
308.00	0.001	0.020	0.019	0.025	0.024	0.046	0.043	0.043	0.041	0.043	0.021	0.019	0.019
309.00	0.001	0.020	0.019	0.024	0.024	0.046	0.042	0.043	0.040	0.043	0.020	0.018	0.019
310.00	0.001	0.019	0.018	0.024	0.024	0.045	0.042	0.042	0.040	0.042	0.020	0.018	0.019
311.00	0.001	0.019	0.018	0.023	0.023	0.045	0.041	0.041	0.039	0.042	0.019	0.018	0.018
312.00	0.001	0.019	0.018	0.023	0.023	0.044	0.041	0.041	0.038	0.041	0.019	0.017	0.018
313.00	0.001	0.018	0.017	0.023	0.023	0.043	0.040	0.041	0.038	0.041	0.019	0.017	0.018
314.00	0.001	0.018	0.017	0.022	0.022	0.043	0.040	0.040	0.038	0.040	0.018	0.017	0.017
315.00	0.001	0.018	0.017	0.022	0.021	0.042	0.039	0.039	0.037	0.039	0.018	0.016	0.017
316.00	0.001	0.017	0.016	0.022	0.021	0.042	0.039	0.039	0.037	0.039	0.018	0.016	0.017
317.00	0.001	0.017	0.016	0.022	0.021	0.041	0.039	0.039	0.036	0.038	0.017	0.016	0.017
318.00	0.001	0.017	0.016	0.021	0.020	0.040	0.038	0.038	0.036	0.038	0.017	0.016	0.016
319.00	0.001	0.017	0.016	0.021	0.020	0.040	0.037	0.038	0.035	0.037	0.017	0.015	0.016
320.00	0.001	0.016	0.015	0.021	0.020	0.040	0.037	0.037	0.035	0.037	0.016	0.015	0.016
321.00	0.000	0.016	0.015	0.020	0.020	0.039	0.036	0.036	0.034	0.036	0.016	0.015	0.016
322.00	0.000	0.016	0.014	0.019	0.019	0.038	0.036	0.036	0.034	0.036	0.016	0.014	0.016
323.00	0.001	0.016	0.014	0.019	0.019	0.038	0.036	0.035	0.033	0.036	0.015	0.014	0.015
324.00	0.001	0.015	0.014	0.019	0.019	0.037	0.035	0.035	0.033	0.035	0.015	0.014	0.015
325.00	0.001	0.015	0.014	0.019	0.019	0.037	0.035	0.035	0.033	0.035	0.015	0.014	0.015
326.00	0.001	0.015	0.014	0.019	0.018	0.036	0.034	0.034	0.032	0.034	0.015	0.013	0.015
327.00	0.001	0.015	0.014	0.019	0.018	0.036	0.034	0.034	0.032	0.034	0.015	0.013	0.015
328.00	0.001	0.014	0.013	0.018	0.018	0.035	0.033	0.033	0.031	0.033	0.014	0.013	0.014
329.00	0.001	0.014	0.013	0.018	0.018	0.035	0.033	0.033	0.031	0.033	0.014	0.013	0.014
330.00	0.000	0.014	0.013	0.017	0.017	0.035	0.032	0.032	0.030	0.032	0.014	0.012	0.014
331.00	0.001	0.014	0.013	0.017	0.017	0.034	0.032	0.032	0.030	0.032	0.014	0.012	0.014
332.00	0.001	0.014	0.012	0.017	0.017	0.034	0.031	0.031	0.029	0.031	0.014	0.012	0.014
333.00	0.001	0.013	0.012	0.017	0.017	0.034	0.031	0.031	0.029	0.031	0.014	0.012	0.014
334.00	0.001	0.013	0.012	0.016	0.016	0.033	0.031	0.031	0.029	0.031	0.013	0.012	0.013
335.00	0.001	0.013	0.012	0.016	0.016	0.033	0.030	0.030	0.028	0.031	0.013	0.011	0.013
336.00	0.001	0.012	0.012	0.016	0.016	0.032	0.030	0.030	0.028	0.030	0.013	0.011	0.012
337.00	0.001	0.012	0.012	0.016	0.016	0.031	0.029	0.029	0.027	0.029	0.013	0.011	0.013
338.00	0.001	0.012	0.011	0.016	0.016	0.031	0.029	0.029	0.027	0.029	0.012	0.011	0.013
339.00	0.001	0.012	0.012	0.015	0.015	0.031	0.029	0.029	0.027	0.029	0.013	0.011	0.013
340.00	0.002	0.013	0.012	0.016	0.016	0.031	0.029	0.029	0.027	0.029	0.013	0.012	0.013
341.00	0.001	0.012	0.011	0.015	0.015	0.029	0.028	0.028	0.026	0.028	0.012	0.011	0.012
342.00	0.001	0.012	0.010	0.015	0.014	0.029	0.027	0.027	0.025	0.027	0.012	0.010	0.012
343.00	0.000	0.011	0.010	0.014	0.014	0.028	0.027	0.027	0.025	0.027	0.011	0.010	0.012
344.00	0.001	0.011	0.010	0.014	0.014	0.028	0.027	0.026	0.025	0.027	0.011	0.010	0.011
345.00	0.001	0.011	0.010	0.014	0.014	0.028	0.026	0.026	0.024	0.026	0.011	0.010	0.011
346.00	0.001	0.011	0.010	0.014	0.013	0.027	0.026	0.025	0.024	0.026	0.011	0.009	0.011
347.00	0.001	0.011	0.010	0.014	0.014	0.027	0.026	0.025	0.024	0.026	0.011	0.009	0.011
348.00	0.001	0.010	0.009	0.014	0.013	0.027	0.025	0.025	0.023	0.025	0.011	0.009	0.011
349.00	0.000	0.010	0.009	0.013	0.013	0.026	0.024	0.024	0.023	0.025	0.010	0.009	0.010
350.00	0.001	0.010	0.009	0.013	0.013	0.026	0.024	0.024	0.023	0.025	0.010	0.009	0.010
351.00	0.001	0.010	0.009	0.013	0.013	0.026	0.024	0.024	0.022	0.024	0.010	0.009	0.010
352.00	0.001	0.010	0.009	0.013	0.013	0.025	0.024	0.024	0.022	0.024	0.010	0.009	0.010
353.00	0.001	0.010	0.009	0.013	0.012	0.025	0.023	0.023	0.021	0.024	0.010	0.008	0.010
354.00	0.001	0.009	0.008	0.012	0.012	0.024	0.023	0.023	0.021	0.023	0.009	0.008	0.009
355.00	0.000	0.009	0.008	0.012	0.012	0.024	0.022	0.022	0.021	0.023	0.009	0.008	0.009
356.00	0.000	0.009	0.008	0.012	0.011	0.023	0.022	0.021	0.020	0.022	0.009	0.008	0.009
357.00	0.000	0.009	0.008	0.012	0.011	0.023	0.022	0.021	0.020	0.021	0.009	0.007	0.009
358.00	0.000	0.008	0.008	0.012	0.011	0.023	0.021	0.021	0.020	0.021	0.009	0.007	0.009
359.00	0.000	0.009	0.008	0.011	0.011	0.022	0.021	0.021	0.019	0.021	0.009	0.007	0.009
360.00	0.000	0.008	0.007	0.011	0.011	0.022	0.021	0.021	0.019	0.021	0.009	0.007	0.009
361.00	0.000	0.008	0.007	0.011	0.011	0.022	0.021	0.020	0.019	0.021	0.009	0.007	0.009
362.00	0.001	0.008	0.007	0.011	0.011	0.021	0.021	0.020	0.019	0.021	0.009	0.007	0.009
363.00	0.001	0.008	0.007	0.011	0.010	0.021	0.020	0.020	0.018	0.020	0.008	0.007	0.008
364.00	0.000	0.008	0.007	0.010	0.010	0.021	0.020	0.020	0.018	0.020	0.008	0.007	0.008
365.00	0.000	0.007	0.007	0.010	0.010	0.020	0.019	0.019	0.018	0.019	0.008	0.006	0.008
366.00	0.001	0.008	0.007	0.010	0.010	0.020	0.020	0.019	0.018	0.019	0.008	0.006	0.008
367.00	0.001	0.008	0.007	0.010	0.010	0.020	0.019	0.019	0.018	0.019	0.008	0.007	0.008
368.00	0.000	0.007	0.007	0.010	0.009	0.020	0.019	0.019	0.017	0.019	0.008	0.006	0.008
369.00	0.000	0.007	0.007	0.010	0.009	0.019	0.018	0.018	0.017	0.019	0.007	0.006	0.008
370.00	0.000	0.007	0.006	0.009	0.009	0.019	0.018	0.018	0.017	0.018	0.007	0.006	0.007
371.00	0.000	0.007	0.006	0.009	0.009	0.018	0.018	0.018	0.016	0.018	0.007	0.006	0.007
372.00	0.000	0.007	0.006	0.009	0.009	0.018	0.018	0.017	0.016	0.018	0.007	0.006	0.007
373.00	0.000	0.007	0.006	0.010	0.009	0.018	0.018	0.017	0.016	0.018	0.007	0.006	0.007
374.00	0.000	0.007	0.006	0.009	0.009	0.018	0.018	0.017	0.016	0.017	0.007	0.006	0.007
375.00	0.000	0.007	0.006	0.009	0.009	0.018	0.017	0.017	0.016	0.017	0.007	0.006	0.007
376.00	0.000	0.006	0.006	0.009	0.009	0.018	0.017	0.016	0.015	0.017	0.007	0.006	0.007
377.00	0.001	0.006	0.006	0.009	0.008	0.017	0.017	0.016	0.015	0.017	0.007	0.006	0.007
378.00	0.001	0.006	0.005	0.009	0.008	0.017	0.016	0.016	0.015	0.016	0.007	0.005	0.007
379.00	0.000	0.006	0.005	0.009	0.008	0.017	0.016	0.016	0.015	0.016	0.006	0.005	0.007
380.00	0.000	0.006	0.005	0.008	0.008	0.016	0.016	0.016	0.014	0.016	0.006	0.005	0.006
381.00	0.000	0.006	0.005	0.008	0.008	0.016	0.016	0.015	0.014	0.016	0.006	0.005	0.006
382.00	0.000	0.006	0.005	0.008	0.008	0.016	0.016	0.015	0.014	0.015	0.006	0.005	0.006
383.00	0.001	0.006	0.005	0.008	0.008	0.016	0.015	0.015	0.014	0.015	0.006	0.005	0.006
384.00	0.001	0.006	0.005	0.008	0.008	0.016	0.015	0.015	0.014	0.015	0.006	0.005	0.006
385.00	0.001	0.006	0.005	0.008	0.008	0.016	0.015	0.015	0.014	0.015	0.006	0.005	0.006
386.00	0.001	0.006	0.005	0.008	0.008	0.015	0.015	0.015	0.013	0.015	0.006	0.005	0.006
387.00	0.001	0.006	0.005	0.008	0.007	0.015	0.014	0.014	0.013	0.014	0.006	0.005	0.006
388.00	0.001	0.006	0.005	0.008	0.007	0.015	0.014	0.014	0.013	0.014	0.006	0.005	0.006
389.00	0.001	0.005	0.005	0.008	0.007	0.015	0.014	0.014	0.013	0.014	0.006	0.004	0.005
390.00	0.001	0.005	0.005	0.007	0.007	0.014	0.014	0.013	0.013	0.014	0.006	0.004	0.005
391.00	0.001	0.005	0.005	0.007	0.007	0.014	0.014	0.013	0.012	0.014	0.005	0.004	0.005
392.00	0.000	0.005	0.004	0.007	0.007	0.014	0.014	0.013	0.012	0.013	0.005	0.004	0.005
393.00	0.000	0.005	0.004	0.007	0.007	0.014	0.013	0.013	0.012	0.013	0.005	0.004	0.005
394.00	0.000	0.005	0.004	0.007	0.007	0.013	0.013	0.013	0.012	0.013	0.005	0.004	0.005
395.00	0.000	0.005	0.004	0.007	0.006	0.013	0.013	0.013	0.012	0.013	0.005	0.004	0.005
396.00	0.000	0.005	0.004	0.007	0.006	0.013	0.013	0.013	0.012	0.013	0.005	0.004	0.005
397.00	0.000	0.005	0.004	0.007	0.006	0.013	0.013	0.012	0.011	0.013	0.005	0.004	0.005
398.00	0.000	0.004	0.004	0.006	0.006	0.013	0.012	0.012	0.011	0.012	0.005	0.004	0.005
399.00	0.000	0.005	0.004	0.006	0.006	0.012	0.012	0.012	0.011	0.012	0.005	0.004	0.005
400.00	0.000	0.005	0.004	0.006	0.006	0.012	0.012	0.012	0.011	0.012	0.005	0.004	0.005
401.00	0.000	0.005	0.004	0.006	0.006	0.012	0.012	0.012	0.011	0.012	0.005	0.004	0.005
402.00	0.000	0.004	0.004	0.006	0.006	0.012	0.012	0.012	0.011	0.012	0.005	0.004	0.005
403.00	0.000	0.004	0.004	0.006	0.006	0.012	0.012	0.011	0.011	0.012	0.005	0.003	0.004
404.00	0.000	0.004	0.004	0.006	0.006	0.012	0.011	0.011	0.010	0.011	0.004	0.003	0.004
405.00	0.000	0.004	0.003	0.006	0.005	0.011	0.011	0.011	0.010	0.011	0.004	0.003	0.004
406.00	0.000	0.004	0.003	0.006	0.005	0.011	0.011	0.011	0.010	0.011	0.004	0.003	0.004
407.00	0.000	0.004	0.004	0.006	0.005	0.011	0.011	0.011	0.010	0.011	0.004	0.003	0.004
408.00	0.000	0.004	0.003	0.006	0.005	0.011	0.011	0.011	0.010	0.011	0.004	0.003	0.004
409.00	0.000	0.004	0.003	0.006	0.005	0.011	0.011	0.011	0.010	0.011	0.004	0.003	0.004
410.00	0.000	0.004	0.003	0.006	0.005	0.011	0.011	0.010	0.010	0.010	0.004	0.003	0.004
411.00	0.000	0.004	0.003	0.006	0.005	0.011	0.011	0.010	0.010	0.010	0.004	0.003	0.004
412.00	0.000	0.004	0.003	0.006	0.005	0.011	0.010	0.010	0.009	0.010	0.004	0.003	0.004
413.00	0.000	0.004	0.003	0.006	0.005	0.010	0.010	0.010	0.009	0.010	0.004	0.003	0.004
414.00	0.000	0.004	0.003	0.006	0.005	0.010	0.010	0.010	0.009	0.010	0.004	0.003	0.004
415.00	0.000	0.004	0.003	0.006	0.005	0.010	0.010	0.010	0.009	0.010	0.004	0.003	0.004
416.00	0.000	0.004	0.003	0.005	0.005	0.010	0.010	0.010	0.009	0.010	0.004	0.003	0.004
417.00	0.000	0.003	0.003	0.005	0.005	0.010	0.010	0.009	0.009	0.010	0.004	0.003	0.004
418.00	0.000	0.003	0.003	0.005	0.005	0.010	0.010	0.009	0.009	0.010	0.004	0.003	0.003
419.00	0.000	0.003	0.003	0.005	0.005	0.010	0.010	0.009	0.009	0.009	0.004	0.003	0.003
420.00	0.000	0.003	0.003	0.005	0.004	0.010	0.009	0.009	0.008	0.009	0.003	0.002	0.003
421.00	0.000	0.003	0.003	0.005	0.004	0.009	0.009	0.009	0.008	0.009	0.003	0.002	0.003
422.00	0.000	0.003	0.003	0.005	0.004	0.009	0.009	0.009	0.008	0.009	0.003	0.002	0.003
423.00	0.000	0.003	0.003	0.005	0.004	0.009	0.009	0.009	0.008	0.009	0.003	0.002	0.003
424.00	0.000	0.003	0.003	0.005	0.004	0.009	0.009	0.009	0.008	0.009	0.003	0.002	0.003
425.00	0.000	0.003	0.003	0.005	0.004	0.009	0.009	0.009	0.008	0.009	0.003	0.002	0.003
426.00	0.000	0.003	0.003	0.005	0.004	0.009	0.009	0.008	0.008	0.009	0.003	0.002	0.003
427.00	0.000	0.003	0.003	0.005	0.004	0.009	0.009	0.008	0.008	0.009	0.003	0.002	0.003
428.00	0.000	0.003	0.002	0.004	0.004	0.009	0.008	0.008	0.008	0.008	0.003	0.002	0.003
429.00	0.000	0.003	0.002	0.004	0.004	0.008	0.008	0.008	0.008	0.008	0.003	0.002	0.003
430.00	0.000	0.003	0.002	0.004	0.004	0.008	0.008	0.008	0.007	0.008	0.003	0.002	0.003
431.00	0.000	0.003	0.002	0.004	0.004	0.008	0.008	0.008	0.007	0.008	0.003	0.002	0.003
432.00	0.000	0.003	0.002	0.004	0.004	0.008	0.008	0.008	0.007	0.008	0.003	0.002	0.003
433.00	0.000	0.003	0.002	0.004	0.004	0.008	0.008	0.008	0.007	0.008	0.003	0.002	0.003
434.00	0.000	0.003	0.002	0.004	0.004	0.008	0.008	0.008	0.007	0.008	0.003	0.002	0.003
435.00	0.000	0.002	0.002	0.004	0.003	0.008	0.008	0.008	0.007	0.008	0.003	0.002	0.003
436.00	0.000	0.002	0.002	0.004	0.003	0.008	0.008	0.007	0.007	0.008	0.003	0.002	0.003
437.00	0.000	0.002	0.002	0.004	0.003	0.008	0.008	0.007	0.007	0.008	0.003	0.002	0.003
438.00	0.000	0.002	0.002	0.004	0.003	0.007	0.008	0.007	0.007	0.008	0.003	0.002	0.003
439.00	0.000	0.002	0.002	0.004	0.003	0.007	0.008	0.007	0.007	0.008	0.003	0.002	0.003
440.00	0.000	0.002	0.002	0.004	0.003	0.007	0.007	0.007	0.007	0.007	0.003	0.002	0.003
441.00	-0.000	0.002	0.002	0.004	0.003	0.007	0.007	0.007	0.006	0.007	0.003	0.002	0.002
442.00	0.000	0.002	0.002	0.004	0.003	0.007	0.007	0.007	0.006	0.007	0.003	0.002	0.002
443.00	0.000	0.002	0.002	0.003	0.003	0.007	0.007	0.007	0.006	0.007	0.003	0.002	0.002
444.00	0.000	0.002	0.002	0.004	0.003	0.007	0.007	0.007	0.006	0.007	0.003	0.002	0.002
445.00	0.000	0.002	0.002	0.004	0.003	0.007	0.007	0.007	0.006	0.007	0.003	0.002	0.002
446.00	0.000	0.002	0.002	0.004	0.003	0.007	0.007	0.007	0.006	0.007	0.002	0.002	0.002
447.00	0.000	0.002	0.002	0.004	0.003	0.007	0.007	0.007	0.006	0.007	0.002	0.002	0.002
448.00	0.000	0.002	0.002	0.004	0.003	0.007	0.007	0.006	0.006	0.007	0.002	0.001	0.002
449.00	0.000	0.002	0.002	0.004	0.003	0.007	0.007	0.006	0.006	0.007	0.002	0.001	0.002
450.00	0.000	0.002	0.002	0.004	0.003	0.007	0.007	0.006	0.006	0.007	0.002	0.001	0.002
451.00	0.000	0.002	0.002	0.004	0.003	0.007	0.007	0.006	0.006	0.007	0.002	0.002	0.002
452.00	0.000	0.002	0.002	0.004	0.003	0.006	0.007	0.006	0.006	0.007	0.002	0.001	0.002
453.00	0.000	0.002	0.002	0.003	0.003	0.006	0.007	0.006	0.006	0.007	0.002	0.001	0.002
454.00	0.000	0.002	0.002	0.004	0.003	0.006	0.007	0.006	0.006	0.007	0.002	0.001	0.002
455.00	0.000	0.002	0.002	0.004	0.003	0.006	0.007	0.006	0.006	0.006	0.002	0.001	0.002
456.00	0.000	0.002	0.002	0.003	0.003	0.006	0.006	0.006	0.006	0.006	0.002	0.001	0.002
457.00	0.000	0.002	0.002	0.003	0.003	0.006	0.006	0.006	0.006	0.006	0.002	0.002	0.002
458.00	0.000	0.002	0.002	0.003	0.003	0.006	0.006	0.006	0.005	0.006	0.002	0.001	0.002
459.00	0.000	0.002	0.002	0.003	0.003	0.006	0.006	0.006	0.005	0.006	0.002	0.001	0.002
460.00	0.000	0.002	0.002	0.003	0.003	0.006	0.006	0.006	0.005	0.006	0.002	0.001	0.002
461.00	0.000	0.002	0.002	0.003	0.003	0.006	0.006	0.006	0.005	0.006	0.002	0.001	0.002
462.00	0.000	0.002	0.001	0.003	0.003	0.006	0.006	0.006	0.005	0.006	0.002	0.001	0.002
463.00	0.000	0.002	0.002	0.003	0.003	0.006	0.006	0.006	0.005	0.006	0.002	0.001	0.002
464.00	0.000	0.002	0.002	0.003	0.003	0.006	0.006	0.006	0.005	0.006	0.002	0.001	0.002
465.00	0.000	0.002	0.001	0.003	0.003	0.006	0.006	0.006	0.005	0.006	0.002	0.001	0.002
466.00	0.000	0.002	0.001	0.003	0.003	0.006	0.006	0.005	0.005	0.006	0.002	0.001	0.002
467.00	0.000	0.002	0.001	0.003	0.003	0.006	0.006	0.005	0.005	0.006	0.002	0.001	0.002
468.00	0.000	0.002	0.001	0.003	0.003	0.006	0.006	0.005	0.005	0.006	0.002	0.001	0.002
469.00	0.000	0.002	0.001	0.003	0.003	0.005	0.006	0.005	0.005	0.006	0.002	0.001	0.002
470.00	0.000	0.002	0.001	0.003	0.002	0.005	0.006	0.005	0.005	0.006	0.002	0.001	0.002
471.00	0.000	0.002	0.001	0.003	0.002	0.005	0.006	0.005	0.005	0.006	0.002	0.001	0.002
472.00	0.000	0.002	0.001	0.003	0.002	0.005	0.006	0.005	0.005	0.006	0.002	0.001	0.002
473.00	0.000	0.002	0.001	0.003	0.002	0.005	0.006	0.005	0.005	0.006	0.002	0.001	0.002
474.00	0.000	0.002	0.001	0.003	0.002	0.005	0.005	0.005	0.005	0.005	0.002	0.001	0.002
475.00	0.000	0.002	0.001	0.003	0.002	0.005	0.005	0.005	0.005	0.005	0.002	0.001	0.002
476.00	0.000	0.002	0.001	0.003	0.002	0.005	0.005	0.005	0.005	0.005	0.002	0.001	0.002
477.00	0.000	0.002	0.001	0.003	0.002	0.005	0.005	0.005	0.005	0.005	0.002	0.001	0.002
478.00	0.000	0.002	0.001	0.003	0.002	0.005	0.005	0.005	0.005	0.005	0.002	0.001	0.002
479.00	0.000	0.002	0.001	0.003	0.002	0.005	0.005	0.005	0.005	0.005	0.002	0.001	0.002
480.00	0.000	0.001	0.001	0.003	0.002	0.005	0.005	0.005	0.005	0.005	0.002	0.001	0.002
481.00	0.000	0.001	0.001	0.003	0.002	0.005	0.005	0.005	0.004	0.005	0.002	0.001	0.002
482.00	0.000	0.001	0.001	0.003	0.002	0.005	0.005	0.005	0.004	0.005	0.002	0.001	0.002
483.00	0.000	0.001	0.001	0.003	0.002	0.004	0.005	0.005	0.004	0.005	0.002	0.001	0.001
484.00	0.000	0.001	0.001	0.003	0.002	0.005	0.005	0.005	0.004	0.005	0.002	0.001	0.001
485.00	0.000	0.001	0.001	0.003	0.002	0.004	0.005	0.005	0.004	0.005	0.002	0.001	0.001
486.00	0.000	0.001	0.001	0.003	0.002	0.004	0.005	0.005	0.004	0.005	0.002	0.001	0.002
487.00	0.000	0.001	0.001	0.003	0.002	0.004	0.005	0.004	0.004	0.005	0.002	0.001	0.002
488.00	0.000	0.001	0.001	0.002	0.002	0.004	0.005	0.004	0.004	0.005	0.002	0.001	0.001
489.00	0.000	0.001	0.001	0.002	0.002	0.004	0.005	0.004	0.004	0.005	0.002	0.001	0.001
490.00	-0.000	0.001	0.001	0.002	0.002	0.004	0.005	0.004	0.004	0.005	0.002	0.001	0.001
491.00	0.000	0.001	0.001	0.002	0.002	0.004	0.005	0.004	0.004	0.005	0.001	0.001	0.001
492.00	0.000	0.001	0.001	0.002	0.002	0.004	0.005	0.004	0.004	0.005	0.001	0.001	0.001
493.00	0.000	0.001	0.001	0.002	0.002	0.004	0.005	0.004	0.004	0.005	0.002	0.001	0.001
494.00	0.000	0.001	0.001	0.002	0.002	0.004	0.004	0.004	0.004	0.005	0.001	0.001	0.001
495.00	0.000	0.001	0.001	0.002	0.002	0.004	0.004	0.004	0.004	0.004	0.001	0.001	0.001
496.00	-0.000	0.001	0.001	0.002	0.002	0.004	0.004	0.004	0.004	0.004	0.001	0.001	0.001
497.00	0.000	0.001	0.001	0.002	0.002	0.004	0.004	0.004	0.004	0.004	0.001	0.001	0.001
498.00	0.000	0.001	0.001	0.002	0.002	0.004	0.004	0.004	0.004	0.004	0.001	0.001	0.001
499.00	0.000	0.001	0.001	0.002	0.002	0.004	0.004	0.004	0.004	0.004	0.001	0.001	0.001
500.00	0.000	0.001	0.001	0.002	0.002	0.004	0.004	0.004	0.004	0.004	0.001	0.001	0.001
501.00	0.000	0.001	0.001	0.002	0.002	0.004	0.004	0.004	0.004	0.004	0.001	0.001	0.001
502.00	0.000	0.001	0.001	0.002	0.002	0.004	0.004	0.004	0.004	0.004	0.001	0.001	0.001
503.00	0.000	0.001	0.001	0.002	0.002	0.004	0.004	0.004	0.003	0.004	0.001	0.001	0.001
504.00	0.000	0.001	0.001	0.002	0.002	0.004	0.004	0.004	0.004	0.004	0.001	0.001	0.001
505.00	0.000	0.001	0.001	0.002	0.002	0.004	0.004	0.004	0.003	0.004	0.001	0.001	0.001
506.00	0.000	0.001	0.001	0.002	0.002	0.004	0.004	0.004	0.003	0.004	0.001	0.001	0.001
507.00	0.000	0.001	0.001	0.002	0.002	0.004	0.004	0.004	0.003	0.004	0.001	0.001	0.001
508.00	0.000	0.001	0.001	0.002	0.002	0.004	0.004	0.004	0.003	0.004	0.001	0.001	0.001
509.00	0.000	0.001	0.001	0.002	0.002	0.004	0.004	0.004	0.003	0.004	0.001	0.001	0.001
510.00	0.000	0.001	0.001	0.002	0.001	0.004	0.004	0.004	0.003	0.004	0.001	0.001	0.001
511.00	0.000	0.001	0.001	0.002	0.002	0.004	0.004	0.004	0.003	0.004	0.001	0.001	0.001
512.00	0.000	0.001	0.001	0.002	0.002	0.004	0.004	0.004	0.003	0.004	0.001	0.001	0.001
513.00	0.000	0.001	0.001	0.002	0.002	0.004	0.004	0.004	0.003	0.004	0.001	0.001	0.001
514.00	0.000	0.001	0.001	0.002	0.001	0.004	0.004	0.004	0.003	0.004	0.001	0.001	0.001
515.00	0.000	0.001	0.001	0.002	0.001	0.003	0.004	0.003	0.003	0.004	0.001	0.000	0.001
516.00	0.000	0.001	0.001	0.002	0.001	0.003	0.004	0.003	0.003	0.004	0.001	0.001	0.001
517.00	-0.000	0.001	0.001	0.002	0.001	0.003	0.004	0.003	0.003	0.004	0.001	0.000	0.001
518.00	0.000	0.001	0.001	0.002	0.001	0.003	0.004	0.003	0.003	0.004	0.001	0.000	0.001
519.00	0.000	0.001	0.000	0.002	0.001	0.003	0.004	0.003	0.003	0.004	0.001	0.000	0.001
520.00	0.000	0.001	0.000	0.002	0.001	0.003	0.004	0.003	0.003	0.004	0.001	0.000	0.001
521.00	0.000	0.001	0.001	0.002	0.001	0.003	0.004	0.003	0.003	0.004	0.001	0.000	0.001
522.00	0.000	0.001	0.001	0.002	0.001	0.003	0.004	0.003	0.003	0.004	0.001	0.000	0.001
523.00	0.000	0.001	0.001	0.002	0.001	0.003	0.004	0.003	0.003	0.004	0.001	0.000	0.001
524.00	0.000	0.001	0.000	0.002	0.001	0.003	0.003	0.003	0.003	0.004	0.001	0.000	0.001
525.00	0.000	0.001	0.001	0.002	0.001	0.003	0.003	0.003	0.003	0.004	0.001	0.000	0.001
526.00	0.000	0.001	0.001	0.002	0.001	0.003	0.004	0.003	0.003	0.004	0.001	0.000	0.001
527.00	0.000	0.001	0.001	0.002	0.001	0.003	0.003	0.003	0.003	0.004	0.001	0.000	0.001
528.00	0.000	0.001	0.001	0.002	0.001	0.003	0.003	0.003	0.003	0.004	0.001	0.000	0.001
529.00	-0.000	0.001	0.000	0.002	0.001	0.003	0.003	0.003	0.003	0.003	0.001	0.000	0.001
530.00	0.000	0.001	0.001	0.002	0.001	0.003	0.003	0.003	0.003	0.003	0.001	0.000	0.001
531.00	-0.000	0.001	0.001	0.002	0.001	0.003	0.003	0.003	0.003	0.003	0.001	0.000	0.001
532.00	-0.000	0.001	0.000	0.002	0.001	0.003	0.003	0.003	0.003	0.003	0.001	0.000	0.001
533.00	-0.000	0.001	0.001	0.002	0.001	0.003	0.003	0.003	0.003	0.003	0.001	0.000	0.001
534.00	-0.000	0.001	0.000	0.002	0.001	0.003	0.003	0.003	0.003	0.003	0.001	0.000	0.001
535.00	0.000	0.001	0.001	0.002	0.001	0.003	0.004	0.003	0.003	0.004	0.001	0.001	0.001
536.00	0.001	0.002	0.001	0.003	0.002	0.004	0.004	0.004	0.004	0.004	0.002	0.001	0.002
537.00	0.000	0.001	0.001	0.002	0.001	0.003	0.003	0.003	0.003	0.003	0.001	0.001	0.001
538.00	-0.000	0.001	0.000	0.002	0.001	0.003	0.003	0.003	0.003	0.003	0.001	0.000	0.001
539.00	-0.000	0.000	0.000	0.002	0.001	0.003	0.003	0.003	0.003	0.003	0.001	0.000	0.001
540.00	-0.000	0.000	0.000	0.002	0.001	0.003	0.003	0.003	0.003	0.003	0.001	0.000	0.001
541.00	-0.000	0.000	0.000	0.002	0.001	0.003	0.003	0.003	0.003	0.003	0.001	0.000	0.001
542.00	-0.000	0.001	0.000	0.002	0.001	0.003	0.003	0.003	0.003	0.003	0.001	0.000	0.001
543.00	-0.000	0.001	0.000	0.002	0.001	0.003	0.003	0.003	0.003	0.003	0.001	0.000	0.001
544.00	-0.000	0.001	0.000	0.002	0.001	0.003	0.003	0.003	0.003	0.003	0.001	0.000	0.001
545.00	-0.000	0.001	0.000	0.002	0.001	0.003	0.003	0.003	0.003	0.003	0.001	0.000	0.001
546.00	-0.000	0.001	0.000	0.002	0.001	0.003	0.003	0.003	0.003	0.003	0.001	0.000	0.001
547.00	-0.000	0.001	0.000	0.002	0.001	0.003	0.003	0.003	0.003	0.003	0.001	0.000	0.001
548.00	0.000	0.001	0.000	0.002	0.001	0.003	0.003	0.003	0.003	0.003	0.001	0.000	0.001
549.00	0.000	0.001	0.000	0.002	0.001	0.003	0.003	0.003	0.003	0.003	0.001	0.000	0.001
550.00	-0.000	0.001	0.000	0.001	0.001	0.003	0.003	0.003	0.002	0.003	0.001	0.000	0.001
551.00	0.000	0.001	0.000	0.002	0.001	0.003	0.003	0.003	0.003	0.003	0.001	0.000	0.001
552.00	0.000	0.001	0.001	0.002	0.001	0.003	0.003	0.003	0.003	0.003	0.001	0.000	0.001
553.00	0.000	0.001	0.000	0.002	0.001	0.003	0.003	0.003	0.003	0.003	0.001	0.000	0.001
554.00	0.000	0.001	0.001	0.002	0.001	0.003	0.003	0.003	0.003	0.003	0.001	0.000	0.001
555.00	0.000	0.001	0.000	0.002	0.001	0.003	0.003	0.003	0.002	0.003	0.001	0.000	0.001
556.00	0.000	0.001	0.000	0.002	0.001	0.003	0.003	0.003	0.003	0.003	0.001	0.000	0.001
557.00	0.000	0.001	0.000	0.002	0.001	0.003	0.003	0.003	0.002	0.003	0.001	0.000	0.001
558.00	0.000	0.001	0.000	0.002	0.001	0.003	0.003	0.003	0.002	0.003	0.001	0.000	0.001
559.00	0.000	0.001	0.000	0.002	0.001	0.003	0.003	0.003	0.002	0.003	0.001	0.000	0.001
560.00	0.000	0.001	0.000	0.002	0.001	0.003	0.003	0.003	0.002	0.003	0.001	0.000	0.001
561.00	0.000	0.001	0.000	0.002	0.001	0.003	0.003	0.003	0.002	0.003	0.001	0.000	0.001
562.00	0.000	0.001	0.000	0.002	0.001	0.003	0.003	0.003	0.002	0.003	0.001	0.000	0.001
563.00	0.000	0.001	0.000	0.002	0.001	0.003	0.003	0.003	0.002	0.003	0.001	0.000	0.001
564.00	0.000	0.001	0.000	0.002	0.001	0.003	0.003	0.003	0.002	0.003	0.001	0.000	0.001
565.00	0.000	0.001	0.001	0.002	0.001	0.003	0.003	0.003	0.002	0.003	0.001	0.000	0.001
566.00	0.000	0.001	0.001	0.002	0.001	0.003	0.003	0.003	0.002	0.003	0.001	0.000	0.001
567.00	0.000	0.001	0.000	0.002	0.001	0.003	0.003	0.003	0.002	0.003	0.001	0.000	0.001
568.00	0.000	0.001	0.000	0.002	0.001	0.003	0.003	0.003	0.002	0.003	0.001	0.000	0.001
569.00	0.000	0.001	0.000	0.002	0.001	0.003	0.003	0.003	0.002	0.003	0.001	0.000	0.001
570.00	0.000	0.001	0.000	0.002	0.001	0.003	0.003	0.002	0.002	0.003	0.001	0.000	0.001
571.00	0.000	0.001	0.000	0.002	0.001	0.003	0.003	0.003	0.002	0.003	0.001	0.000	0.001
572.00	0.000	0.001	0.000	0.002	0.001	0.003	0.003	0.002	0.002	0.003	0.001	0.000	0.001
573.00	0.000	0.001	0.001	0.002	0.001	0.003	0.003	0.003	0.002	0.003	0.001	0.000	0.001
574.00	0.000	0.001	0.000	0.002	0.001	0.003	0.003	0.002	0.002	0.003	0.001	0.000	0.001
575.00	0.000	0.001	0.000	0.002	0.001	0.003	0.003	0.002	0.002	0.003	0.001	0.000	0.001
576.00	0.000	0.001	0.000	0.002	0.001	0.003	0.003	0.002	0.002	0.003	0.001	0.000	0.001
577.00	0.000	0.001	0.000	0.002	0.001	0.003	0.003	0.002	0.002	0.003	0.001	0.000	0.001
578.00	0.000	0.001	0.000	0.002	0.001	0.003	0.003	0.002	0.002	0.003	0.001	0.000	0.001
579.00	0.000	0.001	0.001	0.002	0.001	0.003	0.003	0.003	0.002	0.003	0.001	0.000	0.001
580.00	0.000	0.001	0.000	0.002	0.001	0.003	0.003	0.002	0.002	0.003	0.001	0.000	0.001
581.00	0.000	0.001	0.000	0.002	0.001	0.003	0.003	0.003	0.002	0.003	0.001	0.000	0.001
582.00	0.000	0.001	0.000	0.002	0.001	0.002	0.003	0.002	0.002	0.003	0.001	0.000	0.001
583.00	0.000	0.001	0.000	0.002	0.001	0.002	0.003	0.002	0.002	0.003	0.001	0.000	0.001
584.00	0.000	0.001	0.000	0.002	0.001	0.002	0.003	0.002	0.002	0.003	0.001	0.000	0.001
585.00	0.000	0.001	0.000	0.002	0.001	0.002	0.003	0.002	0.002	0.003	0.001	0.000	0.001
586.00	0.000	0.001	0.000	0.002	0.001	0.002	0.003	0.002	0.002	0.003	0.001	0.000	0.001
587.00	0.000	0.001	0.000	0.002	0.001	0.002	0.003	0.002	0.002	0.003	0.001	0.000	0.001
588.00	0.000	0.001	0.000	0.002	0.001	0.002	0.003	0.002	0.002	0.003	0.001	0.000	0.001
589.00	0.000	0.001	0.000	0.002	0.001	0.002	0.003	0.002	0.002	0.003	0.001	0.000	0.001
590.00	0.000	0.001	0.000	0.001	0.001	0.002	0.003	0.002	0.002	0.003	0.001	0.000	0.001
591.00	0.000	0.001	0.000	0.002	0.001	0.002	0.003	0.002	0.002	0.003	0.001	0.000	0.001
592.00	0.000	0.001	0.000	0.002	0.001	0.002	0.003	0.002	0.002	0.003	0.001	0.000	0.001
593.00	0.000	0.001	0.000	0.002	0.001	0.002	0.003	0.002	0.002	0.003	0.001	0.000	0.001
594.00	0.000	0.001	0.000	0.002	0.001	0.002	0.003	0.002	0.002	0.003	0.001	0.000	0.001
595.00	0.000	0.001	0.000	0.001	0.001	0.002	0.003	0.002	0.002	0.003	0.001	0.000	0.001
596.00	0.000	0.001	0.000	0.001	0.001	0.002	0.003	0.002	0.002	0.003	0.001	0.000	0.001
597.00	0.000	0.001	0.000	0.001	0.001	0.002	0.003	0.002	0.002	0.002	0.001	0.000	0.000
598.00	0.000	0.001	0.000	0.001	0.001	0.002	0.003	0.002	0.002	0.002	0.001	0.000	0.001
599.00	0.000	0.001	0.000	0.001	0.001	0.002	0.003	0.002	0.002	0.003	0.001	0.000	0.001
600.00	0.000	0.001	0.000	0.001	0.001	0.002	0.003	0.002	0.002	0.003	0.001	0.000	0.001
601.00	0.000	0.001	0.000	0.001	0.001	0.002	0.003	0.002	0.002	0.003	0.001	0.000	0.001
602.00	0.000	0.001	0.000	0.001	0.001	0.002	0.003	0.002	0.002	0.003	0.001	0.000	0.001
603.00	0.000	0.001	0.000	0.001	0.001	0.002	0.003	0.002	0.002	0.003	0.001	0.000	0.001
604.00	0.000	0.001	0.000	0.001	0.001	0.002	0.003	0.002	0.002	0.003	0.001	0.000	0.001
605.00	0.000	0.001	0.000	0.001	0.001	0.002	0.003	0.002	0.002	0.002	0.001	0.000	0.001
606.00	0.000	0.001	0.000	0.001	0.001	0.002	0.003	0.002	0.002	0.003	0.001	0.000	0.001
607.00	0.000	0.001	0.000	0.001	0.001	0.002	0.003	0.002	0.002	0.002	0.001	0.000	0.001
608.00	0.000	0.000	0.000	0.001	0.001	0.002	0.002	0.002	0.002	0.002	0.001	0.000	0.001
609.00	0.000	0.000	0.000	0.001	0.001	0.002	0.002	0.002	0.002	0.002	0.001	0.000	0.001
610.00	0.000	0.000	0.000	0.001	0.001	0.002	0.002	0.002	0.002	0.002	0.001	0.000	0.001
611.00	0.000	0.000	0.000	0.001	0.001	0.002	0.002	0.002	0.002	0.002	0.001	0.000	0.001
612.00	0.000	0.000	0.000	0.001	0.001	0.002	0.002	0.002	0.002	0.002	0.001	0.000	0.001
613.00	-0.000	0.000	0.000	0.001	0.001	0.002	0.002	0.002	0.002	0.002	0.001	0.000	0.000
614.00	-0.000	0.000	0.000	0.001	0.001	0.002	0.002	0.002	0.002	0.002	0.001	0.000	0.000
615.00	-0.000	0.000	0.000	0.001	0.001	0.002	0.002	0.002	0.002	0.002	0.001	0.000	0.001
616.00	-0.000	0.000	0.000	0.001	0.001	0.002	0.002	0.002	0.002	0.002	0.001	0.000	0.001
617.00	-0.000	0.000	0.000	0.001	0.001	0.002	0.002	0.002	0.002	0.002	0.001	0.000	0.000
618.00	0.000	0.000	0.000	0.001	0.001	0.002	0.002	0.002	0.002	0.002	0.001	0.000	0.000
619.00	-0.000	0.000	0.000	0.001	0.001	0.002	0.002	0.002	0.002	0.002	0.001	0.000	0.000
620.00	-0.000	0.000	0.000	0.001	0.001	0.002	0.002	0.002	0.002	0.002	0.001	0.000	0.000
621.00	-0.000	0.000	0.000	0.001	0.001	0.002	0.002	0.002	0.002	0.002	0.001	0.000	0.000
622.00	0.000	0.000	0.000	0.001	0.001	0.002	0.002	0.002	0.002	0.002	0.001	0.000	0.000
623.00	-0.000	0.000	0.000	0.001	0.001	0.002	0.002	0.002	0.001	0.002	0.001	0.000	0.000
624.00	-0.000	0.000	0.000	0.001	0.001	0.002	0.002	0.002	0.001	0.002	0.001	0.000	0.000
625.00	-0.000	0.000	0.000	0.001	0.001	0.002	0.002	0.002	0.001	0.002	0.001	0.000	0.000
626.00	-0.000	0.000	0.000	0.001	0.001	0.002	0.002	0.002	0.001	0.002	0.001	0.000	0.000
627.00	-0.000	0.000	0.000	0.001	0.001	0.002	0.002	0.002	0.001	0.002	0.001	0.000	0.000
628.00	-0.000	0.000	0.000	0.001	0.001	0.002	0.002	0.002	0.001	0.002	0.001	0.000	0.000
629.00	-0.000	0.000	0.000	0.001	0.000	0.002	0.002	0.002	0.001	0.002	0.001	0.000	0.000
630.00	-0.000	0.000	0.000	0.001	0.000	0.002	0.002	0.002	0.001	0.002	0.001	0.000	0.000
631.00	-0.000	0.000	0.000	0.001	0.000	0.002	0.002	0.002	0.001	0.002	0.001	0.000	0.000
632.00	-0.000	0.000	0.000	0.001	0.000	0.002	0.002	0.002	0.001	0.002	0.001	0.000	0.000
633.00	-0.000	0.000	0.000	0.001	0.000	0.002	0.002	0.002	0.001	0.002	0.001	0.000	0.000
634.00	-0.000	0.000	0.000	0.001	0.001	0.002	0.002	0.002	0.001	0.002	0.001	0.000	0.000
635.00	-0.000	0.000	0.000	0.001	0.001	0.002	0.002	0.002	0.001	0.002	0.001	0.000	0.000
636.00	-0.000	0.000	0.000	0.001	0.000	0.002	0.002	0.002	0.001	0.002	0.000	0.000	0.000
637.00	-0.000	0.000	0.000	0.001	0.000	0.002	0.002	0.002	0.001	0.002	0.000	-0.000	0.000
638.00	-0.000	0.000	0.000	0.001	0.001	0.002	0.002	0.002	0.001	0.002	0.001	0.000	0.000
639.00	-0.000	0.000	0.000	0.001	0.001	0.002	0.002	0.002	0.001	0.002	0.000	0.000	0.000
640.00	-0.000	0.000	0.000	0.001	0.000	0.002	0.002	0.002	0.001	0.002	0.000	-0.000	0.000
641.00	-0.000	0.000	-0.000	0.001	0.000	0.001	0.002	0.001	0.001	0.002	0.000	-0.000	0.000
642.00	-0.000	0.000	-0.000	0.001	0.000	0.002	0.002	0.002	0.001	0.002	0.000	-0.000	0.000
643.00	-0.000	0.000	-0.000	0.001	0.000	0.002	0.002	0.002	0.001	0.002	0.000	-0.000	0.000
644.00	-0.000	0.000	-0.000	0.001	0.000	0.002	0.002	0.002	0.001	0.002	0.000	-0.000	0.000
645.00	-0.000	0.000	0.000	0.001	0.000	0.002	0.002	0.002	0.001	0.002	0.001	0.000	0.000
646.00	-0.000	0.000	0.000	0.001	0.001	0.002	0.002	0.002	0.001	0.002	0.001	0.000	0.000
647.00	-0.000	0.000	0.000	0.001	0.001	0.002	0.002	0.002	0.001	0.002	0.001	0.000	0.000
648.00	-0.000	0.000	0.000	0.001	0.001	0.002	0.002	0.002	0.001	0.002	0.000	0.000	0.000
649.00	-0.000	0.000	0.000	0.001	0.001	0.002	0.002	0.002	0.001	0.002	0.001	0.000	0.000
650.00	-0.000	0.000	0.000	0.001	0.000	0.002	0.002	0.002	0.001	0.002	0.001	-0.000	0.000
651.00	-0.000	0.000	0.000	0.001	0.000	0.002	0.002	0.002	0.001	0.002	0.001	0.000	0.000
652.00	-0.000	0.000	-0.000	0.001	0.000	0.002	0.002	0.002	0.001	0.002	0.000	-0.000	0.000
653.00	-0.000	0.000	0.000	0.001	0.000	0.002	0.002	0.001	0.001	0.002	0.000	0.000	0.000
654.00	-0.000	0.000	0.000	0.001	0.001	0.002	0.002	0.002	0.001	0.002	0.001	0.000	0.000
655.00	-0.000	0.000	0.000	0.001	0.001	0.002	0.002	0.002	0.001	0.002	0.000	0.000	0.000
656.00	-0.000	0.000	0.000	0.001	0.001	0.002	0.002	0.002	0.001	0.002	0.001	0.000	0.000
657.00	-0.000	0.000	0.000	0.001	0.001	0.002	0.002	0.002	0.001	0.002	0.001	0.000	0.000
658.00	0.000	0.000	0.000	0.001	0.001	0.002	0.002	0.002	0.001	0.002	0.000	0.000	0.000
659.00	-0.000	0.000	0.000	0.001	0.001	0.002	0.002	0.002	0.001	0.002	0.001	0.000	0.000
660.00	-0.000	0.000	-0.000	0.001	0.001	0.002	0.002	0.002	0.001	0.002	0.000	0.000	0.000
661.00	0.000	0.000	0.000	0.001	0.001	0.002	0.002	0.002	0.001	0.002	0.001	0.000	0.000
662.00	-0.000	0.000	0.000	0.001	0.001	0.002	0.002	0.002	0.001	0.002	0.001	0.000	0.000
663.00	0.000	0.000	0.000	0.001	0.001	0.002	0.002	0.002	0.001	0.002	0.001	0.000	0.000
664.00	0.000	0.000	0.000	0.001	0.001	0.002	0.002	0.002	0.001	0.002	0.001	0.000	0.000
665.00	-0.000	0.000	0.000	0.001	0.001	0.002	0.002	0.001	0.001	0.002	0.000	0.000	0.000
666.00	-0.000	0.000	0.000	0.001	0.001	0.002	0.002	0.001	0.001	0.002	0.000	-0.000	0.000
667.00	0.000	0.000	0.000	0.001	0.001	0.002	0.002	0.002	0.001	0.002	0.000	0.000	0.000
668.00	0.000	0.000	0.000	0.001	0.001	0.002	0.002	0.001	0.001	0.002	0.000	0.000	0.000
669.00	0.000	0.000	0.000	0.001	0.001	0.002	0.002	0.001	0.001	0.002	0.000	0.000	0.000
670.00	0.000	0.000	0.000	0.001	0.001	0.002	0.002	0.001	0.001	0.002	0.000	0.000	0.000
671.00	0.000	0.000	0.000	0.001	0.001	0.002	0.002	0.001	0.001	0.002	0.000	0.000	0.000
672.00	0.000	0.000	0.000	0.001	0.001	0.002	0.002	0.002	0.001	0.002	0.000	0.000	0.000
673.00	0.000	0.000	0.000	0.001	0.001	0.002	0.002	0.001	0.001	0.002	0.000	0.000	0.000
674.00	-0.000	0.000	0.000	0.001	0.001	0.002	0.002	0.001	0.001	0.002	0.000	0.000	0.000
675.00	0.000	0.000	0.000	0.001	0.001	0.002	0.002	0.002	0.001	0.002	0.001	0.000	0.000
676.00	0.000	0.000	0.000	0.001	0.001	0.002	0.002	0.002	0.001	0.002	0.001	0.000	0.000
677.00	-0.000	0.000	0.000	0.001	0.001	0.002	0.002	0.001	0.001	0.002	0.000	0.000	0.000
678.00	0.000	0.000	0.000	0.001	0.001	0.002	0.002	0.002	0.001	0.002	0.001	0.000	0.000
679.00	-0.000	0.000	0.000	0.001	0.001	0.002	0.002	0.002	0.001	0.002	0.001	0.000	0.000
680.00	-0.000	0.000	0.000	0.001	0.001	0.002	0.002	0.002	0.001	0.002	0.001	0.000	0.000
681.00	-0.000	0.000	0.000	0.001	0.001	0.002	0.002	0.001	0.001	0.002	0.000	0.000	0.000
682.00	-0.000	0.000	0.000	0.001	0.001	0.002	0.002	0.001	0.001	0.002	0.000	0.000	0.000
683.00	-0.000	0.000	0.000	0.001	0.001	0.002	0.002	0.001	0.001	0.002	0.000	0.000	0.000
684.00	-0.000	0.000	0.000	0.001	0.001	0.002	0.002	0.001	0.001	0.002	0.000	0.000	0.000
685.00	-0.000	0.000	0.000	0.001	0.001	0.002	0.002	0.002	0.001	0.002	0.001	0.000	0.000
686.00	0.000	0.000	0.000	0.001	0.001	0.002	0.002	0.002	0.001	0.002	0.001	0.000	0.000
687.00	0.000	0.000	0.000	0.001	0.001	0.002	0.002	0.002	0.001	0.002	0.001	0.000	0.000
688.00	0.000	0.000	0.000	0.001	0.001	0.002	0.002	0.001	0.001	0.002	0.000	0.000	0.000
689.00	0.000	0.000	0.000	0.001	0.001	0.002	0.002	0.002	0.001	0.002	0.001	0.000	0.000
690.00	-0.000	0.000	0.000	0.001	0.001	0.002	0.002	0.001	0.001	0.002	0.000	0.000	0.000
691.00	0.000	0.000	0.000	0.001	0.001	0.002	0.002	0.002	0.001	0.002	0.001	0.000	0.000
692.00	0.000	0.000	0.000	0.001	0.001	0.002	0.002	0.002	0.001	0.002	0.001	0.000	0.000
693.00	0.000	0.000	0.000	0.001	0.001	0.002	0.002	0.002	0.001	0.002	0.001	0.000	0.000
694.00	0.000	0.000	0.000	0.001	0.001	0.002	0.002	0.002	0.001	0.002	0.001	0.000	0.000
695.00	0.000	0.000	0.000	0.001	0.001	0.002	0.002	0.002	0.001	0.002	0.001	0.000	0.000
696.00	0.000	0.000	0.000	0.001	0.001	0.002	0.002	0.002	0.001	0.002	0.001	0.000	0.000
697.00	0.000	0.000	0.000	0.001	0.001	0.002	0.002	0.002	0.001	0.002	0.000	0.000	0.000
698.00	0.000	0.000	0.000	0.001	0.001	0.002	0.002	0.002	0.001	0.002	0.001	0.000	0.000
699.00	-0.000	0.000	0.000	0.001	0.001	0.002	0.002	0.002	0.001	0.002	0.000	0.000	0.000
700.00	-0.000	0.000	0.000	0.001	0.001	0.002	0.002	0.002	0.001	0.002	0.001	0.000	0.000
701.00	0.000	0.000	0.000	0.001	0.001	0.002	0.002	0.002	0.001	0.002	0.001	0.000	0.000
702.00	-0.000	0.000	0.000	0.001	0.001	0.002	0.002	0.002	0.001	0.002	0.001	0.000	0.000
703.00	-0.000	0.000	0.000	0.001	0.001	0.002	0.002	0.002	0.001	0.002	0.001	0.000	0.000
704.00	-0.000	0.000	0.000	0.001	0.000	0.002	0.002	0.002	0.001	0.002	0.001	0.000	0.000
705.00	-0.000	0.000	0.000	0.001	0.000	0.002	0.002	0.002	0.001	0.002	0.001	0.000	0.000
706.00	-0.000	0.000	0.000	0.001	0.001	0.002	0.002	0.002	0.001	0.002	0.001	0.000	0.000
707.00	-0.000	0.000	0.000	0.001	0.000	0.002	0.002	0.001	0.001	0.002	0.001	0.000	0.000
708.00	-0.000	0.000	0.000	0.001	0.001	0.002	0.002	0.001	0.001	0.002	0.001	0.000	0.000
709.00	-0.000	0.000	0.000	0.001	0.001	0.002	0.002	0.002	0.001	0.002	0.001	0.000	0.000
710.00	-0.000	0.000	0.000	0.001	0.000	0.002	0.002	0.002	0.001	0.002	0.001	0.000	0.000
711.00	-0.000	0.000	0.000	0.001	0.000	0.002	0.002	0.002	0.001	0.002	0.001	0.000	0.000
712.00	-0.000	0.000	0.000	0.001	0.000	0.002	0.002	0.002	0.001	0.002	0.001	0.000	0.000
713.00	-0.000	0.000	0.000	0.001	0.000	0.002	0.002	0.002	0.001	0.002	0.001	0.000	0.000
714.00	-0.000	0.000	0.000	0.001	0.000	0.002	0.002	0.002	0.001	0.002	0.001	0.000	0.000
715.00	-0.000	0.000	0.000	0.001	0.000	0.002	0.002	0.002	0.001	0.002	0.001	0.000	0.000
716.00	-0.000	0.000	0.000	0.001	0.000	0.002	0.002	0.002	0.001	0.002	0.001	0.000	0.000
717.00	-0.000	0.000	0.000	0.001	0.000	0.002	0.002	0.001	0.001	0.002	0.000	0.000	0.000
718.00	-0.000	0.000	0.000	0.001	0.000	0.002	0.002	0.001	0.001	0.002	0.000	0.000	0.000
719.00	-0.000	0.000	0.000	0.001	0.000	0.002	0.002	0.002	0.001	0.002	0.000	0.000	0.000
720.00	-0.000	0.000	0.000	0.001	0.000	0.002	0.002	0.002	0.001	0.002	0.000	0.000	0.000
721.00	0.000	0.000	0.000	0.001	0.000	0.002	0.002	0.002	0.001	0.002	0.001	0.000	0.000
722.00	-0.000	0.000	0.000	0.001	0.000	0.002	0.002	0.001	0.001	0.002	0.000	0.000	0.000
723.00	-0.000	0.000	0.000	0.001	0.000	0.002	0.002	0.002	0.001	0.002	0.001	0.000	0.000
724.00	-0.000	0.000	0.000	0.001	0.000	0.002	0.002	0.002	0.001	0.002	0.000	0.000	0.000
725.00	-0.000	0.000	0.000	0.001	0.000	0.002	0.002	0.001	0.001	0.002	0.001	0.000	0.000
726.00	-0.000	0.000	0.000	0.001	0.000	0.002	0.002	0.001	0.001	0.002	0.001	0.000	0.000
727.00	0.000	0.000	0.000	0.001	0.000	0.002	0.002	0.002	0.001	0.002	0.001	0.000	0.000
728.00	-0.000	0.000	0.000	0.001	0.000	0.002	0.002	0.001	0.001	0.002	0.000	0.000	0.000
729.00	-0.000	0.000	0.000	0.001	0.000	0.002	0.002	0.002	0.001	0.002	0.001	0.000	0.000
730.00	-0.000	0.000	0.000	0.001	0.000	0.002	0.002	0.001	0.001	0.002	0.001	0.000	0.000
731.00	0.000	0.000	0.000	0.001	0.000	0.002	0.002	0.002	0.001	0.002	0.001	0.000	0.000
732.00	0.000	0.000	0.000	0.001	0.000	0.002	0.002	0.001	0.001	0.002	0.000	0.000	0.000
733.00	-0.000	0.000	0.000	0.001	0.000	0.002	0.002	0.001	0.001	0.002	0.000	-0.000	0.000
734.00	-0.000	0.000	0.000	0.001	0.000	0.001	0.002	0.001	0.001	0.001	0.000	-0.000	0.000
735.00	-0.000	0.000	0.000	0.001	0.000	0.002	0.002	0.001	0.001	0.002	0.000	0.000	0.000
736.00	0.000	0.000	0.000	0.001	0.000	0.002	0.002	0.001	0.001	0.002	0.001	0.000	0.000
737.00	0.000	0.000	0.000	0.001	0.000	0.002	0.002	0.001	0.001	0.002	0.000	0.000	0.000
738.00	-0.000	0.000	0.000	0.001	0.000	0.002	0.002	0.001	0.001	0.002	0.000	0.000	0.000
739.00	-0.000	0.000	0.000	0.001	0.000	0.002	0.002	0.001	0.001	0.002	0.001	0.000	0.000
740.00	0.000	0.000	0.000	0.001	0.000	0.002	0.002	0.002	0.001	0.002	0.001	0.000	0.000
741.00	-0.000	0.000	0.000	0.001	0.000	0.002	0.002	0.001	0.001	0.002	0.001	0.000	0.000
742.00	-0.000	0.000	0.000	0.001	0.000	0.002	0.002	0.001	0.001	0.002	0.000	0.000	0.000
743.00	0.000	0.000	0.000	0.001	0.001	0.002	0.002	0.002	0.001	0.002	0.000	0.000	0.000
744.00	0.000	0.000	0.000	0.001	0.000	0.002	0.002	0.002	0.001	0.002	0.000	0.000	0.000
745.00	0.000	0.000	0.000	0.001	0.000	0.002	0.002	0.002	0.001	0.002	0.001	0.000	0.000
746.00	0.000	0.000	0.000	0.001	0.000	0.002	0.002	0.001	0.001	0.002	0.001	0.000	0.000
747.00	0.000	0.000	0.000	0.001	0.000	0.002	0.002	0.001	0.001	0.002	0.000	0.000	0.000
748.00	0.000	0.000	0.000	0.001	0.000	0.002	0.002	0.001	0.001	0.002	0.000	0.000	0.000
749.00	0.000	0.000	0.000	0.001	0.000	0.002	0.002	0.001	0.001	0.002	0.000	0.000	0.000
750.00	0.000	0.000	0.000	0.001	0.000	0.002	0.002	0.002	0.001	0.002	0.001	0.000	0.000
751.00	0.000	0.000	0.000	0.001	0.000	0.002	0.002	0.001	0.001	0.002	0.000	0.000	0.000
752.00	0.000	0.000	0.000	0.001	0.000	0.002	0.002	0.001	0.001	0.002	0.000	0.000	0.000
753.00	0.000	0.000	0.000	0.001	0.001	0.002	0.002	0.001	0.001	0.002	0.001	0.000	0.000
754.00	0.000	0.000	0.000	0.001	0.001	0.002	0.002	0.001	0.001	0.002	0.000	0.000	0.000
755.00	0.000	0.000	0.000	0.001	0.001	0.002	0.002	0.002	0.001	0.002	0.001	0.000	0.000
756.00	0.000	0.000	0.000	0.001	0.001	0.002	0.002	0.002	0.001	0.002	0.000	0.000	0.000
757.00	0.000	0.000	0.000	0.001	0.001	0.002	0.002	0.001	0.001	0.002	0.000	0.000	0.000
758.00	0.000	0.000	0.000	0.001	0.001	0.002	0.002	0.002	0.001	0.002	0.001	0.000	0.000
759.00	0.000	0.001	0.000	0.001	0.001	0.002	0.002	0.002	0.001	0.002	0.001	0.000	0.001
760.00	0.001	0.002	0.001	0.002	0.002	0.003	0.003	0.003	0.002	0.003	0.002	0.001	0.002
761.00	0.000	0.001	0.000	0.001	0.001	0.002	0.002	0.002	0.001	0.002	0.001	0.000	0.001
762.00	0.000	0.000	0.000	0.001	0.000	0.002	0.002	0.001	0.001	0.001	0.000	0.000	0.000
763.00	-0.000	0.000	0.000	0.001	0.000	0.002	0.002	0.001	0.001	0.001	0.000	0.000	0.000
764.00	0.000	0.000	0.000	0.001	0.000	0.002	0.002	0.001	0.001	0.002	0.000	0.000	0.000
765.00	0.000	0.000	0.000	0.001	0.000	0.002	0.002	0.001	0.001	0.001	0.000	0.000	0.000
766.00	0.000	0.000	0.000	0.001	0.001	0.002	0.002	0.001	0.001	0.001	0.000	0.000	0.000
767.00	0.000	0.000	0.000	0.001	0.001	0.002	0.002	0.001	0.001	0.001	0.000	0.000	0.000
768.00	0.000	0.000	0.000	0.001	0.001	0.002	0.002	0.002	0.001	0.002	0.000	0.000	0.001
769.00	0.000	0.000	0.000	0.001	0.001	0.002	0.002	0.002	0.001	0.002	0.000	0.000	0.000
770.00	0.000	0.000	0.000	0.001	0.001	0.002	0.002	0.002	0.001	0.002	0.000	0.000	0.000
771.00	0.000	0.000	0.000	0.001	0.001	0.002	0.002	0.002	0.001	0.002	0.001	0.000	0.000
772.00	0.000	0.000	0.000	0.001	0.001	0.002	0.002	0.001	0.001	0.002	0.001	0.000	0.000
773.00	0.000	0.000	0.000	0.001	0.001	0.002	0.002	0.001	0.001	0.002	0.001	0.000	0.000
774.00	0.000	0.000	0.000	0.001	0.001	0.002	0.002	0.001	0.001	0.002	0.001	0.000	0.000
775.00	0.000	0.000	0.000	0.001	0.001	0.002	0.002	0.001	0.001	0.002	0.000	0.000	0.000
776.00	0.000	0.000	0.000	0.001	0.001	0.002	0.002	0.001	0.001	0.002	0.001	0.000	0.000
777.00	0.000	0.000	0.000	0.001	0.001	0.002	0.002	0.002	0.001	0.002	0.001	0.000	0.000
778.00	0.000	0.000	0.000	0.001	0.001	0.002	0.002	0.002	0.001	0.002	0.001	0.000	0.000
779.00	0.000	0.001	0.000	0.001	0.001	0.002	0.002	0.002	0.001	0.002	0.001	0.000	0.000
780.00	0.000	0.001	0.000	0.001	0.001	0.002	0.002	0.001	0.001	0.002	0.000	0.000	0.000
781.00	0.000	0.001	0.000	0.001	0.001	0.002	0.002	0.001	0.001	0.001	0.000	0.000	0.000
782.00	0.000	0.001	0.000	0.001	0.001	0.002	0.002	0.001	0.001	0.001	0.000	0.000	0.000
783.00	0.000	0.000	0.000	0.001	0.001	0.002	0.002	0.001	0.001	0.001	0.000	0.000	0.000
784.00	0.000	0.000	0.000	0.001	0.001	0.002	0.002	0.001	0.001	0.001	0.000	0.000	0.000
785.00	0.000	0.001	0.000	0.001	0.001	0.002	0.002	0.001	0.001	0.002	0.001	0.000	0.000
786.00	0.000	0.001	0.000	0.001	0.001	0.002	0.002	0.001	0.001	0.002	0.000	0.000	0.000
787.00	0.000	0.000	0.000	0.001	0.001	0.002	0.002	0.001	0.001	0.002	0.000	0.000	0.000
788.00	0.000	0.000	0.000	0.001	0.001	0.002	0.002	0.001	0.001	0.001	0.000	0.000	0.000
789.00	0.000	0.001	0.000	0.001	0.001	0.002	0.002	0.001	0.001	0.002	0.001	0.000	0.001
790.00	0.000	0.001	0.000	0.001	0.001	0.002	0.002	0.001	0.001	0.002	0.000	0.000	0.000
791.00	0.000	0.000	0.000	0.001	0.001	0.002	0.002	0.001	0.001	0.001	0.001	0.000	0.000
792.00	0.000	0.001	0.000	0.001	0.001	0.002	0.002	0.001	0.001	0.001	0.001	0.000	0.000
793.00	0.000	0.001	0.000	0.001	0.001	0.002	0.002	0.001	0.001	0.002	0.001	0.000	0.000
794.00	0.000	0.000	0.000	0.001	0.001	0.002	0.002	0.001	0.001	0.002	0.000	0.000	0.000
795.00	0.000	0.001	0.000	0.001	0.001	0.002	0.002	0.001	0.001	0.002	0.001	0.000	0.000
796.00	0.000	0.001	0.000	0.001	0.001	0.002	0.002	0.001	0.001	0.002	0.001	0.000	0.000
797.00	0.000	0.000	0.000	0.001	0.001	0.002	0.002	0.001	0.001	0.002	0.001	0.000	0.000
798.00	0.000	0.000	0.000	0.001	0.001	0.002	0.002	0.001	0.001	0.001	0.001	0.000	0.000
799.00	0.000	0.000	0.000	0.001	0.001	0.002	0.002	0.001	0.001	0.002	0.001	0.000	0.000
800.00	0.000	0.000	0.000	0.001	0.001	0.002	0.002	0.001	0.001	0.001	0.000	0.000	0.000
801.00	0.000	0.000	0.000	0.001	0.001	0.002	0.002	0.001	0.001	0.001	0.001	0.000	0.000
802.00	0.000	0.001	0.000	0.001	0.001	0.002	0.002	0.001	0.001	0.002	0.001	0.000	0.000
803.00	0.000	0.001	0.000	0.001	0.001	0.002	0.002	0.001	0.001	0.001	0.001	0.000	0.000
804.00	0.000	0.001	0.000	0.001	0.001	0.002	0.002	0.001	0.001	0.001	0.001	0.000	0.000
805.00	0.000	0.001	0.000	0.001	0.001	0.002	0.002	0.001	0.001	0.001	0.001	0.000	0.000
806.00	0.000	0.001	0.000	0.001	0.001	0.002	0.002	0.001	0.001	0.002	0.001	0.000	0.000
807.00	0.000	0.001	0.000	0.001	0.001	0.002	0.002	0.001	0.001	0.002	0.001	0.000	0.000
808.00	0.000	0.001	0.000	0.001	0.001	0.002	0.002	0.001	0.001	0.002	0.001	0.000	0.000
809.00	0.000	0.000	0.000	0.001	0.001	0.002	0.002	0.001	0.001	0.002	0.000	0.000	0.000
810.00	0.000	0.001	0.000	0.001	0.001	0.002	0.002	0.001	0.001	0.002	0.001	0.000	0.000
811.00	0.000	0.000	0.000	0.001	0.001	0.002	0.002	0.001	0.001	0.001	0.000	0.000	0.000
812.00	0.000	0.000	0.000	0.001	0.001	0.002	0.002	0.001	0.001	0.001	0.000	0.000	0.000
813.00	0.000	0.000	0.000	0.001	0.001	0.002	0.002	0.001	0.001	0.001	0.000	0.000	0.000
814.00	0.000	0.000	0.000	0.001	0.001	0.002	0.002	0.001	0.001	0.002	0.001	0.000	0.000
815.00	0.000	0.000	0.000	0.001	0.001	0.002	0.002	0.001	0.001	0.001	0.001	0.000	0.000
816.00	0.000	0.001	0.000	0.001	0.001	0.002	0.002	0.001	0.001	0.001	0.001	0.000	0.001
817.00	0.000	0.001	0.000	0.001	0.001	0.002	0.002	0.001	0.001	0.001	0.001	0.000	0.001
818.00	0.000	0.001	0.000	0.001	0.001	0.002	0.002	0.001	0.001	0.002	0.001	0.000	0.001
819.00	0.000	0.000	0.000	0.001	0.001	0.002	0.002	0.001	0.001	0.001	0.001	0.000	0.001
820.00	0.000	0.000	0.000	0.001	0.001	0.002	0.002	0.001	0.001	0.001	0.001	0.000	0.000
821.00	0.000	0.000	0.000	0.001	0.001	0.002	0.002	0.001	0.001	0.001	0.000	0.000	0.000
822.00	0.000	0.000	0.000	0.001	0.001	0.002	0.002	0.001	0.001	0.001	0.000	0.000	0.000
823.00	0.000	0.000	0.000	0.001	0.001	0.002	0.002	0.001	0.001	0.001	0.001	0.000	0.000
824.00	0.000	0.000	0.000	0.001	0.000	0.002	0.002	0.001	0.001	0.001	0.000	0.000	0.000
825.00	0.000	0.000	0.000	0.001	0.001	0.002	0.002	0.001	0.001	0.001	0.000	0.000	0.000
826.00	0.000	0.000	0.000	0.001	0.001	0.002	0.002	0.001	0.001	0.002	0.001	0.000	0.000
827.00	0.000	0.000	0.000	0.001	0.001	0.002	0.002	0.001	0.001	0.001	0.001	0.000	0.000
828.00	0.000	0.000	0.000	0.001	0.001	0.002	0.002	0.001	0.001	0.001	0.001	0.000	0.000
829.00	0.000	0.000	0.000	0.001	0.000	0.002	0.002	0.001	0.001	0.001	0.000	0.000	0.000
830.00	0.000	0.000	0.000	0.001	0.000	0.001	0.001	0.001	0.001	0.001	0.000	0.000	0.000
831.00	0.000	0.000	0.000	0.001	0.000	0.001	0.001	0.001	0.001	0.001	0.000	0.000	0.000
832.00	0.000	0.000	0.000	0.001	0.000	0.002	0.001	0.001	0.001	0.001	0.000	0.000	0.000
833.00	0.000	0.000	0.000	0.001	0.000	0.001	0.001	0.001	0.001	0.001	0.000	0.000	0.000
834.00	0.000	0.000	0.000	0.001	0.000	0.002	0.001	0.001	0.001	0.001	0.000	0.000	0.000
835.00	0.000	0.000	0.000	0.001	0.000	0.001	0.001	0.001	0.001	0.001	0.000	0.000	0.000
836.00	0.000	0.000	0.000	0.001	0.000	0.001	0.002	0.001	0.001	0.001	0.000	0.000	0.000
837.00	0.000	0.000	0.000	0.001	0.000	0.002	0.002	0.001	0.001	0.001	0.000	0.000	0.000
838.00	0.000	0.000	0.000	0.001	0.000	0.002	0.002	0.001	0.001	0.001	0.000	0.000	0.000
839.00	0.000	0.000	0.000	0.001	0.000	0.001	0.002	0.001	0.001	0.001	0.000	0.000	0.000
840.00	-0.000	0.000	0.000	0.001	0.000	0.001	0.001	0.001	0.001	0.001	0.000	0.000	0.000
841.00	-0.000	0.000	0.000	0.001	0.000	0.001	0.001	0.001	0.001	0.001	0.000	0.000	0.000
842.00	0.000	0.000	0.000	0.001	0.000	0.001	0.001	0.001	0.001	0.001	0.000	0.000	0.000
843.00	-0.000	0.000	0.000	0.001	0.000	0.001	0.001	0.001	0.001	0.001	0.001	0.000	0.000
844.00	0.000	0.000	0.000	0.001	0.000	0.001	0.001	0.001	0.001	0.001	0.001	0.000	0.000
845.00	-0.000	0.000	0.000	0.001	0.000	0.001	0.001	0.001	0.001	0.001	0.000	0.000	0.000
846.00	0.000	0.000	0.000	0.001	0.000	0.001	0.001	0.001	0.001	0.001	0.000	0.000	0.000
847.00	-0.000	0.000	0.000	0.001	0.000	0.001	0.001	0.001	0.001	0.001	0.000	0.000	0.000
848.00	0.000	0.000	0.000	0.001	0.000	0.001	0.001	0.001	0.001	0.001	0.000	0.000	0.000
849.00	0.000	0.000	0.000	0.001	0.000	0.001	0.001	0.001	0.001	0.001	0.000	0.000	0.000
850.00	-0.000	0.000	0.000	0.001	0.000	0.001	0.001	0.001	0.001	0.001	0.000	0.000	0.000
