Wavelength nm.	RawData ...	RawData ...	RawData ...	RawData ...	RawData ...	RawData ...	RawData ...	RawData ...	RawData ...	RawData ...	RawData ...	RawData ...	RawData ...	RawData ...
190.00	0.009	0.404	0.413	0.218	0.333	0.400	0.395	0.429	0.416	0.419	0.381	0.402	0.410	0.200
191.00	0.005	0.370	0.375	0.205	0.308	0.365	0.360	0.395	0.384	0.388	0.346	0.364	0.373	0.188
192.00	0.005	0.340	0.342	0.197	0.288	0.330	0.330	0.365	0.353	0.358	0.316	0.333	0.341	0.178
193.00	0.005	0.307	0.308	0.188	0.265	0.297	0.297	0.331	0.319	0.325	0.283	0.301	0.308	0.169
194.00	0.004	0.281	0.280	0.180	0.247	0.271	0.272	0.304	0.294	0.299	0.258	0.275	0.281	0.161
195.00	0.004	0.257	0.255	0.174	0.230	0.247	0.249	0.280	0.270	0.273	0.235	0.253	0.256	0.155
196.00	0.004	0.236	0.235	0.169	0.217	0.227	0.228	0.260	0.251	0.252	0.215	0.233	0.235	0.150
197.00	0.004	0.217	0.217	0.164	0.205	0.210	0.210	0.243	0.233	0.233	0.197	0.216	0.217	0.145
198.00	0.003	0.202	0.202	0.160	0.194	0.195	0.195	0.228	0.218	0.216	0.183	0.201	0.201	0.141
199.00	0.003	0.189	0.189	0.156	0.186	0.182	0.182	0.215	0.205	0.202	0.171	0.188	0.188	0.138
200.00	0.003	0.178	0.178	0.154	0.179	0.172	0.172	0.205	0.193	0.191	0.161	0.178	0.178	0.135
201.00	0.002	0.168	0.167	0.150	0.172	0.161	0.162	0.194	0.182	0.180	0.151	0.168	0.168	0.132
202.00	0.002	0.159	0.158	0.147	0.166	0.153	0.154	0.185	0.172	0.169	0.143	0.159	0.159	0.129
203.00	0.002	0.152	0.150	0.144	0.161	0.145	0.147	0.177	0.164	0.161	0.136	0.152	0.151	0.127
204.00	0.002	0.145	0.143	0.141	0.155	0.139	0.140	0.170	0.157	0.153	0.130	0.145	0.144	0.124
205.00	0.002	0.139	0.137	0.138	0.151	0.133	0.134	0.164	0.150	0.146	0.124	0.140	0.138	0.121
206.00	0.001	0.134	0.132	0.136	0.146	0.128	0.129	0.158	0.144	0.140	0.119	0.135	0.133	0.119
207.00	0.001	0.129	0.127	0.133	0.142	0.124	0.125	0.154	0.138	0.134	0.115	0.130	0.129	0.117
208.00	0.001	0.125	0.123	0.130	0.139	0.120	0.121	0.150	0.133	0.129	0.111	0.126	0.124	0.114
209.00	0.001	0.121	0.119	0.126	0.135	0.116	0.117	0.145	0.128	0.125	0.107	0.122	0.120	0.111
210.00	0.001	0.118	0.115	0.123	0.131	0.112	0.114	0.141	0.124	0.120	0.104	0.119	0.117	0.109
211.00	0.001	0.114	0.112	0.120	0.128	0.109	0.111	0.137	0.120	0.117	0.101	0.116	0.114	0.106
212.00	0.001	0.111	0.108	0.116	0.124	0.106	0.108	0.134	0.117	0.113	0.098	0.113	0.111	0.104
213.00	0.001	0.108	0.105	0.113	0.121	0.104	0.105	0.130	0.113	0.110	0.095	0.110	0.107	0.101
214.00	0.001	0.105	0.102	0.110	0.117	0.100	0.102	0.127	0.110	0.106	0.093	0.107	0.105	0.098
215.00	0.000	0.102	0.099	0.106	0.114	0.098	0.099	0.124	0.107	0.103	0.090	0.105	0.102	0.095
216.00	0.000	0.100	0.097	0.103	0.111	0.096	0.096	0.121	0.104	0.100	0.088	0.102	0.100	0.093
217.00	0.000	0.097	0.095	0.099	0.108	0.093	0.094	0.118	0.101	0.098	0.086	0.100	0.097	0.090
218.00	0.000	0.095	0.093	0.096	0.106	0.092	0.092	0.116	0.099	0.096	0.084	0.098	0.095	0.088
219.00	0.000	0.093	0.091	0.093	0.103	0.089	0.090	0.113	0.097	0.093	0.082	0.096	0.093	0.085
220.00	0.000	0.091	0.089	0.091	0.101	0.088	0.088	0.111	0.095	0.091	0.080	0.094	0.091	0.083
221.00	0.000	0.089	0.087	0.088	0.099	0.086	0.086	0.109	0.093	0.090	0.079	0.092	0.090	0.081
222.00	0.001	0.088	0.085	0.086	0.096	0.085	0.085	0.107	0.091	0.088	0.077	0.091	0.088	0.080
223.00	0.001	0.086	0.084	0.083	0.095	0.083	0.083	0.106	0.090	0.086	0.076	0.089	0.086	0.078
224.00	0.001	0.084	0.082	0.081	0.093	0.082	0.082	0.104	0.088	0.084	0.074	0.088	0.085	0.076
225.00	0.001	0.083	0.081	0.079	0.091	0.080	0.080	0.102	0.086	0.083	0.073	0.086	0.083	0.074
226.00	0.001	0.081	0.079	0.077	0.089	0.079	0.078	0.100	0.085	0.081	0.072	0.085	0.082	0.073
227.00	0.000	0.080	0.078	0.075	0.087	0.077	0.077	0.098	0.083	0.079	0.070	0.083	0.080	0.071
228.00	0.000	0.078	0.076	0.073	0.085	0.076	0.075	0.097	0.081	0.078	0.069	0.082	0.079	0.070
229.00	0.000	0.077	0.075	0.071	0.084	0.074	0.074	0.095	0.080	0.076	0.068	0.080	0.077	0.068
230.00	0.000	0.075	0.073	0.070	0.082	0.073	0.072	0.094	0.079	0.075	0.066	0.079	0.076	0.067
231.00	-0.000	0.074	0.072	0.068	0.081	0.072	0.071	0.092	0.077	0.073	0.065	0.078	0.075	0.065
232.00	0.000	0.073	0.071	0.067	0.079	0.071	0.070	0.090	0.076	0.072	0.064	0.077	0.073	0.064
233.00	0.000	0.071	0.070	0.065	0.078	0.069	0.069	0.089	0.074	0.071	0.063	0.076	0.072	0.063
234.00	0.000	0.070	0.069	0.064	0.077	0.069	0.068	0.088	0.073	0.070	0.062	0.075	0.071	0.062
235.00	0.000	0.069	0.067	0.063	0.076	0.067	0.067	0.086	0.072	0.068	0.061	0.073	0.070	0.061
236.00	-0.000	0.068	0.066	0.062	0.075	0.066	0.065	0.085	0.071	0.067	0.060	0.072	0.069	0.060
237.00	-0.000	0.067	0.065	0.061	0.073	0.065	0.064	0.084	0.070	0.066	0.059	0.071	0.068	0.059
238.00	-0.000	0.066	0.064	0.060	0.072	0.064	0.063	0.082	0.068	0.065	0.058	0.070	0.067	0.058
239.00	-0.000	0.065	0.063	0.059	0.071	0.063	0.063	0.081	0.067	0.064	0.058	0.069	0.066	0.057
240.00	-0.000	0.064	0.063	0.058	0.070	0.063	0.062	0.080	0.067	0.063	0.057	0.069	0.065	0.056
241.00	-0.000	0.063	0.062	0.057	0.069	0.062	0.061	0.080	0.066	0.062	0.056	0.068	0.064	0.055
242.00	-0.000	0.063	0.061	0.057	0.068	0.061	0.060	0.079	0.065	0.061	0.055	0.067	0.064	0.055
243.00	-0.000	0.062	0.061	0.056	0.068	0.061	0.059	0.078	0.064	0.061	0.055	0.066	0.063	0.054
244.00	0.000	0.061	0.060	0.055	0.067	0.060	0.059	0.077	0.063	0.060	0.054	0.066	0.062	0.053
245.00	-0.000	0.061	0.059	0.054	0.066	0.059	0.058	0.076	0.062	0.059	0.054	0.065	0.062	0.053
246.00	-0.000	0.060	0.058	0.054	0.065	0.059	0.058	0.075	0.062	0.058	0.053	0.064	0.061	0.052
247.00	-0.000	0.060	0.058	0.053	0.065	0.058	0.057	0.075	0.061	0.058	0.053	0.064	0.061	0.051
248.00	-0.000	0.059	0.058	0.052	0.064	0.057	0.056	0.074	0.060	0.057	0.052	0.063	0.060	0.050
249.00	-0.000	0.059	0.057	0.052	0.063	0.057	0.056	0.073	0.059	0.056	0.052	0.063	0.059	0.050
250.00	-0.000	0.058	0.057	0.051	0.063	0.057	0.055	0.073	0.059	0.056	0.051	0.063	0.059	0.049
251.00	-0.000	0.058	0.056	0.051	0.062	0.057	0.055	0.072	0.059	0.056	0.051	0.062	0.059	0.049
252.00	-0.000	0.057	0.056	0.050	0.062	0.056	0.055	0.072	0.058	0.055	0.051	0.062	0.058	0.048
253.00	-0.000	0.057	0.055	0.050	0.061	0.056	0.054	0.071	0.058	0.055	0.050	0.061	0.058	0.048
254.00	-0.000	0.056	0.055	0.049	0.061	0.055	0.054	0.070	0.057	0.054	0.050	0.061	0.057	0.047
255.00	-0.000	0.056	0.055	0.049	0.060	0.055	0.053	0.070	0.057	0.054	0.050	0.060	0.057	0.047
256.00	-0.000	0.056	0.054	0.049	0.060	0.054	0.053	0.069	0.056	0.053	0.049	0.060	0.057	0.047
257.00	-0.000	0.055	0.054	0.048	0.059	0.054	0.052	0.069	0.056	0.053	0.049	0.060	0.056	0.046
258.00	-0.000	0.055	0.053	0.048	0.059	0.054	0.052	0.069	0.055	0.053	0.048	0.059	0.056	0.046
259.00	-0.000	0.054	0.053	0.047	0.058	0.053	0.051	0.068	0.055	0.052	0.048	0.059	0.055	0.046
260.00	-0.000	0.054	0.052	0.047	0.058	0.053	0.051	0.067	0.054	0.052	0.048	0.058	0.055	0.045
261.00	-0.000	0.054	0.052	0.047	0.057	0.052	0.051	0.067	0.054	0.051	0.047	0.058	0.054	0.045
262.00	-0.000	0.053	0.051	0.046	0.057	0.052	0.050	0.066	0.054	0.051	0.047	0.057	0.054	0.044
263.00	0.000	0.053	0.051	0.046	0.057	0.052	0.050	0.066	0.053	0.050	0.046	0.057	0.053	0.044
264.00	0.000	0.052	0.050	0.045	0.056	0.051	0.049	0.065	0.052	0.050	0.046	0.056	0.053	0.043
265.00	0.000	0.051	0.050	0.045	0.055	0.050	0.049	0.064	0.052	0.049	0.046	0.056	0.052	0.043
266.00	0.000	0.051	0.049	0.044	0.055	0.050	0.048	0.064	0.051	0.049	0.045	0.055	0.052	0.043
267.00	-0.000	0.050	0.048	0.044	0.054	0.049	0.048	0.063	0.050	0.048	0.044	0.054	0.051	0.042
268.00	-0.000	0.049	0.048	0.043	0.053	0.048	0.047	0.062	0.050	0.047	0.043	0.054	0.050	0.042
269.00	-0.000	0.049	0.047	0.043	0.053	0.047	0.046	0.061	0.049	0.047	0.043	0.053	0.049	0.041
270.00	0.000	0.048	0.046	0.043	0.052	0.047	0.046	0.060	0.048	0.046	0.042	0.052	0.049	0.041
271.00	0.000	0.047	0.046	0.042	0.052	0.046	0.045	0.060	0.048	0.045	0.042	0.052	0.048	0.041
272.00	-0.000	0.047	0.045	0.042	0.051	0.045	0.044	0.059	0.047	0.045	0.041	0.051	0.047	0.040
273.00	-0.000	0.046	0.044	0.041	0.050	0.045	0.044	0.058	0.046	0.044	0.040	0.050	0.046	0.040
274.00	0.000	0.045	0.043	0.041	0.050	0.044	0.043	0.057	0.045	0.043	0.039	0.049	0.046	0.039
275.00	-0.000	0.044	0.043	0.040	0.049	0.043	0.042	0.056	0.045	0.043	0.038	0.048	0.045	0.039
276.00	-0.000	0.044	0.042	0.040	0.049	0.043	0.042	0.055	0.044	0.042	0.038	0.048	0.044	0.038
277.00	-0.000	0.043	0.041	0.040	0.048	0.041	0.041	0.054	0.043	0.041	0.037	0.047	0.043	0.038
278.00	-0.000	0.042	0.040	0.039	0.047	0.041	0.040	0.053	0.042	0.040	0.036	0.046	0.042	0.037
279.00	-0.000	0.041	0.039	0.039	0.047	0.040	0.040	0.053	0.041	0.039	0.035	0.045	0.041	0.037
280.00	-0.000	0.040	0.038	0.038	0.046	0.039	0.039	0.052	0.040	0.039	0.035	0.044	0.041	0.036
281.00	-0.000	0.039	0.038	0.038	0.045	0.038	0.038	0.051	0.040	0.038	0.034	0.044	0.040	0.036
282.00	-0.000	0.039	0.037	0.037	0.044	0.038	0.037	0.050	0.039	0.037	0.033	0.043	0.039	0.035
283.00	-0.000	0.038	0.036	0.037	0.044	0.037	0.037	0.049	0.038	0.036	0.032	0.042	0.039	0.035
284.00	-0.000	0.037	0.036	0.037	0.043	0.036	0.036	0.048	0.037	0.035	0.032	0.041	0.038	0.035
285.00	-0.000	0.036	0.035	0.036	0.043	0.035	0.035	0.047	0.036	0.034	0.031	0.040	0.037	0.034
286.00	-0.000	0.035	0.034	0.035	0.042	0.035	0.034	0.046	0.035	0.034	0.030	0.040	0.036	0.034
287.00	-0.000	0.035	0.033	0.035	0.041	0.034	0.034	0.045	0.035	0.033	0.029	0.039	0.035	0.033
288.00	-0.000	0.034	0.032	0.034	0.041	0.033	0.033	0.045	0.034	0.032	0.029	0.038	0.034	0.033
289.00	-0.000	0.033	0.032	0.034	0.040	0.032	0.032	0.044	0.033	0.031	0.028	0.037	0.034	0.032
290.00	-0.000	0.033	0.031	0.034	0.039	0.031	0.032	0.043	0.032	0.030	0.027	0.037	0.033	0.032
291.00	-0.000	0.032	0.030	0.033	0.039	0.031	0.031	0.042	0.031	0.030	0.027	0.036	0.032	0.031
292.00	-0.000	0.031	0.029	0.033	0.038	0.030	0.031	0.041	0.031	0.029	0.026	0.035	0.031	0.031
293.00	-0.000	0.030	0.029	0.032	0.037	0.029	0.030	0.040	0.030	0.028	0.025	0.035	0.031	0.031
294.00	-0.000	0.030	0.028	0.032	0.037	0.029	0.029	0.040	0.029	0.027	0.025	0.034	0.030	0.030
295.00	-0.000	0.029	0.027	0.031	0.036	0.028	0.029	0.039	0.029	0.027	0.024	0.033	0.029	0.030
296.00	-0.000	0.028	0.027	0.031	0.036	0.028	0.028	0.038	0.028	0.026	0.024	0.033	0.029	0.029
297.00	-0.000	0.028	0.026	0.030	0.035	0.027	0.027	0.037	0.027	0.026	0.023	0.032	0.028	0.029
298.00	-0.000	0.027	0.026	0.030	0.035	0.027	0.027	0.036	0.027	0.025	0.022	0.032	0.028	0.029
299.00	-0.000	0.026	0.025	0.030	0.034	0.026	0.026	0.036	0.026	0.024	0.022	0.031	0.027	0.028
300.00	0.000	0.026	0.025	0.029	0.033	0.026	0.026	0.035	0.026	0.024	0.021	0.030	0.026	0.028
301.00	-0.000	0.025	0.024	0.029	0.033	0.025	0.025	0.035	0.025	0.023	0.021	0.030	0.026	0.027
302.00	-0.000	0.025	0.024	0.029	0.032	0.025	0.025	0.034	0.025	0.023	0.020	0.029	0.025	0.027
303.00	-0.000	0.024	0.023	0.028	0.032	0.024	0.024	0.033	0.024	0.022	0.020	0.029	0.025	0.027
304.00	-0.000	0.024	0.023	0.028	0.031	0.023	0.024	0.033	0.024	0.022	0.020	0.028	0.024	0.026
305.00	-0.000	0.024	0.022	0.027	0.031	0.023	0.024	0.033	0.023	0.021	0.019	0.028	0.024	0.026
306.00	-0.000	0.023	0.022	0.027	0.030	0.022	0.023	0.032	0.022	0.021	0.019	0.027	0.023	0.025
307.00	-0.000	0.023	0.021	0.027	0.030	0.022	0.022	0.031	0.022	0.020	0.018	0.027	0.023	0.025
308.00	-0.000	0.022	0.021	0.027	0.029	0.022	0.022	0.030	0.022	0.020	0.018	0.027	0.022	0.025
309.00	-0.000	0.022	0.020	0.026	0.029	0.021	0.022	0.030	0.021	0.020	0.018	0.026	0.022	0.024
310.00	-0.000	0.021	0.020	0.026	0.029	0.021	0.021	0.030	0.021	0.019	0.017	0.026	0.021	0.024
311.00	0.000	0.021	0.019	0.026	0.028	0.021	0.021	0.029	0.020	0.019	0.017	0.025	0.021	0.024
312.00	0.000	0.021	0.019	0.025	0.028	0.020	0.020	0.028	0.020	0.019	0.016	0.025	0.021	0.023
313.00	-0.000	0.020	0.019	0.025	0.027	0.020	0.020	0.028	0.019	0.018	0.016	0.024	0.020	0.023
314.00	-0.000	0.020	0.018	0.024	0.027	0.019	0.020	0.028	0.019	0.018	0.016	0.024	0.020	0.023
315.00	-0.000	0.019	0.018	0.024	0.026	0.019	0.020	0.027	0.019	0.018	0.015	0.024	0.020	0.022
316.00	-0.000	0.019	0.018	0.024	0.026	0.019	0.019	0.027	0.019	0.017	0.015	0.023	0.019	0.022
317.00	-0.000	0.019	0.017	0.023	0.026	0.018	0.019	0.026	0.018	0.017	0.015	0.023	0.019	0.022
318.00	-0.000	0.018	0.017	0.023	0.025	0.018	0.018	0.026	0.018	0.016	0.014	0.022	0.018	0.021
319.00	-0.000	0.018	0.017	0.023	0.025	0.018	0.018	0.025	0.018	0.016	0.014	0.022	0.018	0.021
320.00	-0.000	0.017	0.016	0.022	0.024	0.017	0.018	0.025	0.017	0.016	0.014	0.022	0.018	0.020
321.00	-0.000	0.017	0.016	0.022	0.024	0.017	0.018	0.025	0.017	0.015	0.014	0.022	0.017	0.020
322.00	-0.000	0.017	0.016	0.022	0.024	0.017	0.017	0.024	0.016	0.015	0.014	0.021	0.017	0.020
323.00	-0.000	0.017	0.016	0.022	0.024	0.017	0.017	0.024	0.016	0.015	0.013	0.021	0.017	0.020
324.00	-0.000	0.016	0.015	0.021	0.023	0.016	0.017	0.024	0.016	0.015	0.013	0.021	0.017	0.020
325.00	0.000	0.016	0.015	0.021	0.023	0.016	0.016	0.023	0.016	0.015	0.012	0.020	0.016	0.019
326.00	-0.000	0.016	0.015	0.021	0.023	0.016	0.016	0.023	0.015	0.014	0.012	0.020	0.016	0.019
327.00	-0.000	0.016	0.014	0.021	0.022	0.016	0.016	0.023	0.015	0.014	0.012	0.020	0.016	0.019
328.00	-0.000	0.015	0.014	0.020	0.022	0.015	0.015	0.022	0.015	0.013	0.012	0.019	0.015	0.018
329.00	-0.000	0.015	0.014	0.020	0.022	0.015	0.015	0.022	0.015	0.013	0.012	0.020	0.015	0.018
330.00	-0.001	0.015	0.014	0.020	0.021	0.015	0.015	0.021	0.014	0.013	0.012	0.019	0.015	0.018
331.00	-0.000	0.015	0.014	0.020	0.021	0.015	0.015	0.021	0.014	0.013	0.011	0.019	0.015	0.018
332.00	-0.000	0.014	0.013	0.020	0.021	0.014	0.015	0.021	0.014	0.013	0.011	0.019	0.014	0.018
333.00	-0.000	0.014	0.013	0.019	0.020	0.014	0.015	0.021	0.014	0.013	0.011	0.019	0.015	0.017
334.00	-0.000	0.014	0.013	0.019	0.020	0.014	0.014	0.020	0.014	0.012	0.011	0.018	0.014	0.017
335.00	-0.000	0.014	0.013	0.019	0.020	0.014	0.014	0.020	0.013	0.012	0.011	0.018	0.014	0.017
336.00	-0.000	0.013	0.012	0.019	0.020	0.014	0.014	0.019	0.013	0.012	0.010	0.018	0.014	0.016
337.00	-0.000	0.013	0.012	0.018	0.019	0.014	0.014	0.019	0.013	0.012	0.010	0.017	0.013	0.016
338.00	-0.000	0.013	0.012	0.018	0.019	0.013	0.013	0.019	0.012	0.011	0.010	0.017	0.013	0.016
339.00	0.000	0.013	0.012	0.018	0.019	0.014	0.014	0.019	0.013	0.012	0.010	0.017	0.013	0.016
340.00	0.001	0.014	0.013	0.019	0.020	0.014	0.014	0.019	0.013	0.012	0.011	0.018	0.014	0.017
341.00	0.000	0.013	0.012	0.017	0.018	0.013	0.013	0.018	0.012	0.011	0.010	0.017	0.013	0.016
342.00	0.000	0.012	0.012	0.017	0.018	0.013	0.013	0.018	0.011	0.011	0.010	0.017	0.012	0.015
343.00	0.000	0.012	0.011	0.017	0.018	0.013	0.012	0.017	0.011	0.010	0.009	0.016	0.012	0.015
344.00	0.000	0.012	0.011	0.016	0.017	0.012	0.012	0.017	0.011	0.010	0.009	0.016	0.012	0.015
345.00	-0.000	0.011	0.010	0.016	0.017	0.012	0.012	0.017	0.011	0.010	0.009	0.016	0.011	0.015
346.00	-0.000	0.011	0.010	0.016	0.017	0.012	0.011	0.016	0.011	0.010	0.008	0.015	0.011	0.014
347.00	0.000	0.011	0.010	0.016	0.017	0.012	0.012	0.016	0.011	0.010	0.008	0.016	0.011	0.014
348.00	-0.000	0.011	0.010	0.016	0.016	0.011	0.011	0.016	0.010	0.009	0.008	0.015	0.011	0.014
349.00	-0.000	0.011	0.010	0.016	0.016	0.011	0.011	0.015	0.010	0.009	0.008	0.015	0.011	0.013
350.00	-0.000	0.010	0.010	0.015	0.016	0.011	0.011	0.015	0.010	0.009	0.008	0.014	0.010	0.013
351.00	-0.000	0.010	0.009	0.015	0.016	0.011	0.010	0.015	0.009	0.009	0.008	0.015	0.010	0.013
352.00	0.000	0.010	0.009	0.015	0.015	0.011	0.010	0.015	0.009	0.009	0.007	0.015	0.010	0.013
353.00	-0.000	0.010	0.009	0.015	0.015	0.010	0.010	0.015	0.009	0.009	0.007	0.014	0.010	0.013
354.00	-0.000	0.010	0.009	0.014	0.015	0.010	0.010	0.015	0.009	0.008	0.007	0.014	0.010	0.012
355.00	-0.001	0.009	0.008	0.014	0.014	0.010	0.010	0.014	0.009	0.008	0.007	0.014	0.009	0.012
356.00	-0.000	0.009	0.009	0.014	0.014	0.010	0.010	0.014	0.009	0.008	0.007	0.014	0.009	0.012
357.00	-0.000	0.009	0.009	0.014	0.014	0.010	0.009	0.014	0.009	0.008	0.007	0.014	0.009	0.012
358.00	-0.001	0.009	0.008	0.013	0.014	0.010	0.009	0.013	0.008	0.008	0.006	0.013	0.009	0.011
359.00	-0.000	0.009	0.008	0.013	0.014	0.009	0.009	0.013	0.008	0.008	0.006	0.013	0.009	0.011
360.00	-0.000	0.009	0.008	0.013	0.014	0.009	0.009	0.013	0.008	0.008	0.006	0.013	0.009	0.011
361.00	-0.000	0.008	0.008	0.013	0.013	0.009	0.009	0.013	0.008	0.007	0.006	0.013	0.008	0.011
362.00	-0.000	0.008	0.008	0.013	0.013	0.009	0.009	0.013	0.008	0.007	0.006	0.013	0.008	0.011
363.00	-0.000	0.008	0.008	0.013	0.013	0.009	0.008	0.012	0.008	0.007	0.006	0.013	0.008	0.011
364.00	-0.000	0.008	0.008	0.013	0.013	0.009	0.008	0.012	0.007	0.007	0.006	0.013	0.008	0.011
365.00	-0.000	0.008	0.007	0.012	0.013	0.009	0.008	0.012	0.007	0.007	0.006	0.012	0.008	0.010
366.00	-0.000	0.008	0.007	0.012	0.013	0.009	0.008	0.012	0.007	0.007	0.006	0.012	0.008	0.010
367.00	-0.000	0.008	0.007	0.012	0.012	0.009	0.008	0.012	0.007	0.007	0.005	0.012	0.008	0.010
368.00	-0.000	0.007	0.007	0.012	0.012	0.008	0.008	0.011	0.007	0.007	0.005	0.012	0.007	0.010
369.00	-0.000	0.007	0.007	0.012	0.012	0.008	0.008	0.011	0.007	0.006	0.005	0.012	0.007	0.010
370.00	-0.000	0.007	0.007	0.011	0.011	0.008	0.007	0.011	0.007	0.006	0.005	0.012	0.007	0.009
371.00	-0.000	0.007	0.007	0.011	0.011	0.008	0.007	0.011	0.007	0.006	0.005	0.012	0.007	0.009
372.00	-0.000	0.007	0.007	0.011	0.011	0.008	0.007	0.011	0.007	0.006	0.005	0.011	0.007	0.009
373.00	-0.000	0.007	0.007	0.011	0.011	0.008	0.007	0.011	0.007	0.006	0.005	0.011	0.007	0.009
374.00	-0.000	0.007	0.006	0.011	0.011	0.008	0.007	0.010	0.006	0.006	0.005	0.011	0.007	0.009
375.00	-0.000	0.007	0.006	0.011	0.011	0.008	0.007	0.010	0.006	0.006	0.005	0.011	0.007	0.009
376.00	-0.000	0.006	0.006	0.011	0.010	0.007	0.007	0.010	0.006	0.006	0.004	0.011	0.006	0.008
377.00	-0.000	0.006	0.006	0.011	0.010	0.007	0.007	0.010	0.006	0.005	0.004	0.011	0.007	0.008
378.00	-0.000	0.006	0.006	0.010	0.010	0.007	0.007	0.010	0.006	0.006	0.004	0.011	0.007	0.009
379.00	-0.000	0.006	0.006	0.010	0.010	0.007	0.007	0.010	0.006	0.006	0.004	0.011	0.006	0.008
380.00	-0.000	0.006	0.006	0.010	0.010	0.007	0.007	0.010	0.006	0.005	0.004	0.010	0.006	0.008
381.00	-0.000	0.006	0.006	0.010	0.010	0.007	0.006	0.010	0.006	0.005	0.004	0.010	0.006	0.008
382.00	-0.000	0.006	0.006	0.010	0.010	0.007	0.006	0.009	0.005	0.005	0.004	0.010	0.006	0.008
383.00	-0.000	0.006	0.006	0.010	0.010	0.007	0.006	0.009	0.005	0.005	0.004	0.010	0.006	0.008
384.00	-0.000	0.006	0.006	0.010	0.010	0.007	0.006	0.009	0.005	0.005	0.004	0.010	0.006	0.008
385.00	-0.000	0.006	0.005	0.010	0.009	0.007	0.006	0.009	0.005	0.005	0.004	0.010	0.006	0.008
386.00	-0.000	0.006	0.005	0.010	0.009	0.007	0.006	0.009	0.005	0.005	0.004	0.010	0.006	0.007
387.00	-0.000	0.005	0.005	0.010	0.009	0.007	0.006	0.008	0.005	0.005	0.004	0.010	0.006	0.007
388.00	-0.000	0.005	0.005	0.009	0.009	0.006	0.006	0.008	0.005	0.005	0.004	0.010	0.005	0.007
389.00	-0.000	0.005	0.005	0.009	0.009	0.006	0.005	0.008	0.005	0.004	0.004	0.010	0.005	0.007
390.00	-0.000	0.005	0.005	0.009	0.009	0.006	0.005	0.008	0.005	0.004	0.004	0.009	0.005	0.007
391.00	-0.000	0.005	0.005	0.009	0.009	0.006	0.005	0.008	0.005	0.004	0.004	0.009	0.005	0.007
392.00	-0.000	0.005	0.005	0.009	0.008	0.006	0.005	0.008	0.004	0.004	0.003	0.009	0.005	0.007
393.00	-0.000	0.005	0.005	0.009	0.008	0.006	0.005	0.008	0.004	0.004	0.003	0.009	0.005	0.007
394.00	-0.000	0.005	0.005	0.008	0.008	0.006	0.005	0.007	0.004	0.004	0.003	0.009	0.005	0.007
395.00	-0.000	0.005	0.005	0.008	0.008	0.006	0.005	0.008	0.004	0.004	0.003	0.009	0.005	0.006
396.00	-0.000	0.005	0.004	0.008	0.008	0.006	0.005	0.007	0.004	0.004	0.003	0.009	0.004	0.006
397.00	-0.000	0.004	0.004	0.008	0.008	0.006	0.005	0.007	0.004	0.004	0.003	0.009	0.004	0.006
398.00	-0.000	0.004	0.004	0.008	0.008	0.006	0.005	0.007	0.004	0.004	0.003	0.009	0.004	0.006
399.00	-0.000	0.004	0.004	0.008	0.008	0.005	0.005	0.007	0.004	0.004	0.003	0.009	0.004	0.006
400.00	-0.000	0.004	0.004	0.008	0.008	0.005	0.004	0.007	0.004	0.004	0.003	0.008	0.004	0.006
401.00	-0.000	0.004	0.004	0.008	0.007	0.005	0.004	0.007	0.004	0.004	0.003	0.008	0.004	0.006
402.00	-0.000	0.004	0.004	0.008	0.007	0.005	0.004	0.007	0.004	0.004	0.003	0.008	0.004	0.006
403.00	-0.000	0.004	0.004	0.008	0.007	0.005	0.004	0.006	0.004	0.004	0.003	0.008	0.004	0.005
404.00	-0.000	0.004	0.004	0.008	0.007	0.005	0.004	0.006	0.003	0.004	0.003	0.008	0.004	0.005
405.00	-0.000	0.004	0.004	0.007	0.007	0.005	0.004	0.006	0.003	0.003	0.003	0.008	0.004	0.005
406.00	-0.000	0.004	0.004	0.007	0.007	0.005	0.004	0.006	0.003	0.003	0.003	0.008	0.004	0.005
407.00	-0.000	0.004	0.004	0.007	0.007	0.005	0.004	0.006	0.003	0.003	0.002	0.008	0.004	0.005
408.00	-0.000	0.004	0.004	0.007	0.007	0.005	0.004	0.006	0.003	0.003	0.002	0.008	0.004	0.005
409.00	-0.000	0.003	0.004	0.007	0.007	0.005	0.004	0.006	0.003	0.003	0.002	0.008	0.003	0.005
410.00	-0.000	0.003	0.003	0.007	0.007	0.005	0.004	0.006	0.003	0.003	0.002	0.008	0.003	0.005
411.00	-0.000	0.003	0.003	0.007	0.007	0.005	0.004	0.006	0.003	0.003	0.002	0.008	0.003	0.005
412.00	-0.000	0.003	0.003	0.007	0.006	0.005	0.004	0.006	0.003	0.003	0.002	0.008	0.003	0.005
413.00	-0.000	0.003	0.003	0.007	0.006	0.005	0.004	0.006	0.003	0.003	0.002	0.008	0.003	0.005
414.00	-0.000	0.003	0.003	0.007	0.006	0.004	0.004	0.005	0.003	0.003	0.002	0.007	0.003	0.005
415.00	-0.000	0.003	0.003	0.007	0.006	0.004	0.004	0.005	0.003	0.003	0.002	0.007	0.003	0.005
416.00	-0.000	0.003	0.003	0.007	0.006	0.004	0.003	0.005	0.003	0.003	0.002	0.007	0.003	0.005
417.00	-0.000	0.003	0.003	0.006	0.006	0.004	0.003	0.005	0.003	0.003	0.002	0.007	0.003	0.004
418.00	-0.000	0.003	0.003	0.006	0.006	0.004	0.003	0.005	0.003	0.003	0.002	0.007	0.003	0.004
419.00	-0.000	0.003	0.003	0.006	0.006	0.004	0.003	0.005	0.003	0.003	0.002	0.007	0.003	0.004
420.00	-0.000	0.003	0.003	0.006	0.006	0.004	0.003	0.005	0.003	0.003	0.002	0.007	0.003	0.004
421.00	-0.000	0.003	0.003	0.006	0.005	0.004	0.003	0.005	0.002	0.002	0.002	0.007	0.003	0.004
422.00	-0.000	0.003	0.003	0.006	0.005	0.004	0.003	0.005	0.002	0.002	0.002	0.007	0.003	0.004
423.00	-0.000	0.003	0.003	0.006	0.005	0.004	0.003	0.005	0.003	0.002	0.002	0.007	0.003	0.004
424.00	-0.000	0.003	0.003	0.006	0.005	0.004	0.003	0.005	0.003	0.002	0.002	0.007	0.003	0.004
425.00	-0.000	0.002	0.003	0.006	0.005	0.004	0.003	0.005	0.002	0.002	0.002	0.007	0.003	0.004
426.00	-0.000	0.002	0.003	0.006	0.005	0.004	0.003	0.004	0.002	0.002	0.001	0.007	0.002	0.004
427.00	-0.000	0.002	0.003	0.006	0.005	0.004	0.003	0.004	0.002	0.002	0.002	0.007	0.002	0.004
428.00	-0.000	0.002	0.003	0.006	0.005	0.004	0.003	0.004	0.002	0.002	0.001	0.007	0.002	0.004
429.00	-0.000	0.002	0.003	0.005	0.005	0.004	0.003	0.004	0.002	0.002	0.001	0.007	0.002	0.004
430.00	-0.000	0.002	0.002	0.005	0.005	0.004	0.003	0.004	0.002	0.002	0.001	0.006	0.002	0.003
431.00	-0.000	0.002	0.002	0.005	0.005	0.004	0.003	0.004	0.002	0.002	0.001	0.006	0.002	0.003
432.00	-0.000	0.002	0.002	0.005	0.005	0.004	0.003	0.004	0.002	0.002	0.001	0.006	0.002	0.003
433.00	-0.000	0.002	0.002	0.005	0.005	0.003	0.002	0.004	0.002	0.002	0.001	0.006	0.002	0.003
434.00	-0.000	0.002	0.002	0.005	0.005	0.004	0.002	0.004	0.002	0.002	0.001	0.006	0.002	0.003
435.00	-0.000	0.002	0.002	0.005	0.005	0.003	0.002	0.004	0.002	0.002	0.001	0.006	0.002	0.003
436.00	-0.000	0.002	0.002	0.005	0.005	0.003	0.002	0.004	0.002	0.002	0.001	0.006	0.002	0.003
437.00	-0.000	0.002	0.002	0.005	0.005	0.003	0.002	0.004	0.002	0.002	0.001	0.006	0.002	0.003
438.00	-0.000	0.002	0.002	0.005	0.004	0.003	0.002	0.004	0.002	0.002	0.001	0.006	0.002	0.003
439.00	-0.000	0.002	0.002	0.005	0.004	0.003	0.002	0.004	0.002	0.002	0.001	0.006	0.002	0.003
440.00	-0.000	0.002	0.002	0.005	0.004	0.003	0.002	0.003	0.002	0.002	0.001	0.006	0.002	0.003
441.00	-0.000	0.002	0.002	0.005	0.004	0.003	0.002	0.003	0.001	0.002	0.001	0.006	0.002	0.003
442.00	-0.000	0.002	0.002	0.005	0.004	0.003	0.002	0.003	0.002	0.002	0.001	0.006	0.002	0.003
443.00	-0.000	0.002	0.002	0.005	0.004	0.003	0.002	0.003	0.001	0.002	0.001	0.006	0.002	0.003
444.00	-0.000	0.002	0.002	0.005	0.004	0.003	0.002	0.003	0.002	0.002	0.001	0.006	0.002	0.003
445.00	-0.000	0.002	0.002	0.005	0.004	0.003	0.002	0.003	0.001	0.002	0.001	0.006	0.002	0.003
446.00	-0.000	0.002	0.002	0.005	0.004	0.003	0.002	0.003	0.001	0.002	0.001	0.006	0.002	0.003
447.00	-0.000	0.002	0.002	0.005	0.004	0.003	0.002	0.003	0.001	0.002	0.001	0.006	0.002	0.003
448.00	-0.000	0.002	0.002	0.005	0.004	0.003	0.002	0.003	0.001	0.001	0.001	0.006	0.002	0.003
449.00	-0.000	0.002	0.002	0.005	0.004	0.003	0.002	0.003	0.001	0.002	0.001	0.006	0.002	0.003
450.00	-0.000	0.002	0.002	0.004	0.004	0.003	0.002	0.003	0.001	0.002	0.001	0.006	0.002	0.003
451.00	-0.000	0.002	0.002	0.004	0.004	0.003	0.002	0.003	0.001	0.002	0.001	0.006	0.002	0.002
452.00	-0.000	0.001	0.002	0.004	0.004	0.003	0.002	0.003	0.001	0.002	0.001	0.006	0.002	0.002
453.00	-0.000	0.001	0.002	0.004	0.004	0.003	0.002	0.003	0.001	0.001	0.001	0.005	0.002	0.002
454.00	-0.000	0.001	0.002	0.004	0.004	0.003	0.002	0.003	0.001	0.001	0.001	0.005	0.002	0.002
455.00	-0.000	0.001	0.002	0.004	0.004	0.003	0.002	0.003	0.001	0.001	0.001	0.005	0.001	0.002
456.00	-0.000	0.001	0.002	0.004	0.004	0.003	0.002	0.003	0.001	0.001	0.001	0.005	0.001	0.002
457.00	-0.000	0.001	0.002	0.004	0.004	0.003	0.002	0.003	0.001	0.001	0.001	0.005	0.001	0.002
458.00	-0.000	0.001	0.002	0.004	0.004	0.003	0.002	0.003	0.001	0.001	0.001	0.006	0.001	0.002
459.00	-0.000	0.001	0.002	0.004	0.003	0.003	0.002	0.003	0.001	0.001	0.001	0.005	0.002	0.002
460.00	-0.000	0.001	0.002	0.004	0.004	0.003	0.002	0.003	0.001	0.001	0.001	0.005	0.002	0.002
461.00	-0.000	0.001	0.002	0.004	0.003	0.003	0.002	0.003	0.001	0.001	0.001	0.005	0.001	0.002
462.00	-0.000	0.001	0.002	0.004	0.003	0.003	0.002	0.003	0.001	0.001	0.001	0.005	0.001	0.002
463.00	-0.000	0.001	0.002	0.004	0.003	0.003	0.002	0.003	0.001	0.001	0.001	0.005	0.001	0.002
464.00	-0.000	0.001	0.002	0.004	0.003	0.003	0.002	0.003	0.001	0.001	0.001	0.005	0.001	0.002
465.00	-0.000	0.001	0.002	0.004	0.003	0.003	0.002	0.003	0.001	0.001	0.001	0.005	0.001	0.002
466.00	-0.000	0.001	0.002	0.004	0.003	0.003	0.002	0.003	0.001	0.001	0.001	0.005	0.001	0.002
467.00	-0.000	0.001	0.002	0.004	0.003	0.003	0.002	0.003	0.001	0.001	0.001	0.005	0.001	0.002
468.00	-0.000	0.001	0.002	0.004	0.003	0.003	0.002	0.003	0.001	0.001	0.001	0.005	0.001	0.002
469.00	-0.000	0.001	0.002	0.004	0.003	0.003	0.001	0.002	0.001	0.001	0.001	0.005	0.001	0.002
470.00	-0.000	0.001	0.002	0.004	0.003	0.002	0.001	0.002	0.001	0.001	0.001	0.005	0.001	0.002
471.00	-0.000	0.001	0.002	0.004	0.003	0.003	0.001	0.002	0.001	0.001	0.001	0.005	0.001	0.002
472.00	-0.000	0.001	0.002	0.004	0.003	0.003	0.001	0.002	0.001	0.001	0.001	0.005	0.001	0.002
473.00	-0.000	0.001	0.002	0.004	0.003	0.003	0.001	0.002	0.001	0.001	0.001	0.005	0.001	0.002
474.00	-0.000	0.001	0.002	0.004	0.003	0.003	0.001	0.002	0.001	0.001	0.001	0.005	0.001	0.002
475.00	-0.000	0.001	0.002	0.004	0.003	0.003	0.001	0.002	0.001	0.001	0.001	0.005	0.001	0.002
476.00	-0.000	0.001	0.002	0.004	0.003	0.003	0.001	0.002	0.001	0.001	0.001	0.005	0.001	0.002
477.00	-0.000	0.001	0.002	0.004	0.003	0.002	0.001	0.002	0.001	0.001	0.001	0.005	0.001	0.002
478.00	-0.000	0.001	0.001	0.004	0.003	0.002	0.001	0.002	0.001	0.001	0.001	0.005	0.001	0.002
479.00	-0.000	0.001	0.001	0.004	0.003	0.002	0.001	0.002	0.001	0.001	0.001	0.005	0.001	0.002
480.00	-0.000	0.001	0.002	0.004	0.003	0.002	0.001	0.002	0.001	0.001	0.001	0.005	0.001	0.002
481.00	-0.000	0.001	0.001	0.003	0.003	0.002	0.001	0.002	0.001	0.001	0.001	0.005	0.001	0.002
482.00	-0.000	0.001	0.001	0.003	0.003	0.002	0.001	0.002	0.001	0.001	0.000	0.005	0.001	0.002
483.00	-0.000	0.001	0.001	0.003	0.003	0.002	0.001	0.002	0.001	0.001	0.001	0.005	0.001	0.002
484.00	-0.000	0.001	0.001	0.003	0.003	0.002	0.001	0.002	0.001	0.001	0.001	0.005	0.001	0.002
485.00	-0.000	0.001	0.001	0.003	0.003	0.002	0.001	0.002	0.001	0.001	0.000	0.005	0.001	0.001
486.00	-0.000	0.001	0.001	0.003	0.003	0.002	0.001	0.002	0.001	0.001	0.000	0.005	0.001	0.001
487.00	-0.000	0.001	0.001	0.003	0.003	0.002	0.001	0.002	0.001	0.001	0.000	0.005	0.001	0.001
488.00	-0.000	0.001	0.001	0.003	0.003	0.002	0.001	0.002	0.000	0.001	0.000	0.004	0.001	0.001
489.00	-0.000	0.001	0.001	0.003	0.003	0.002	0.001	0.002	0.000	0.001	0.000	0.004	0.001	0.001
490.00	-0.000	0.001	0.001	0.003	0.003	0.002	0.001	0.002	0.001	0.001	0.000	0.004	0.001	0.001
491.00	-0.000	0.001	0.001	0.003	0.003	0.002	0.001	0.002	0.000	0.001	0.000	0.004	0.001	0.001
492.00	-0.000	0.001	0.001	0.003	0.003	0.002	0.001	0.002	0.000	0.001	0.000	0.004	0.001	0.001
493.00	-0.000	0.001	0.001	0.003	0.002	0.002	0.001	0.002	0.000	0.001	0.000	0.004	0.001	0.001
494.00	-0.000	0.001	0.001	0.003	0.002	0.002	0.001	0.002	0.000	0.001	0.000	0.004	0.001	0.001
495.00	-0.000	0.001	0.001	0.003	0.002	0.002	0.001	0.002	0.000	0.001	0.000	0.004	0.001	0.001
496.00	-0.000	0.001	0.001	0.003	0.002	0.002	0.001	0.002	0.000	0.001	0.000	0.004	0.001	0.001
497.00	-0.000	0.001	0.001	0.003	0.002	0.002	0.001	0.002	0.000	0.001	0.000	0.004	0.001	0.001
498.00	-0.000	0.001	0.001	0.003	0.002	0.002	0.001	0.002	0.000	0.001	0.000	0.004	0.001	0.001
499.00	-0.000	0.001	0.001	0.003	0.002	0.002	0.001	0.002	0.000	0.001	0.000	0.004	0.001	0.001
500.00	-0.000	0.001	0.001	0.003	0.002	0.002	0.001	0.002	0.000	0.001	0.000	0.004	0.001	0.001
501.00	-0.000	0.001	0.001	0.003	0.002	0.002	0.001	0.002	0.000	0.001	0.000	0.004	0.001	0.001
502.00	-0.000	0.001	0.001	0.003	0.002	0.002	0.001	0.002	0.000	0.001	0.000	0.004	0.001	0.001
503.00	-0.000	0.000	0.001	0.003	0.002	0.002	0.001	0.001	0.000	0.001	0.000	0.004	0.001	0.001
504.00	-0.000	0.001	0.001	0.003	0.002	0.002	0.001	0.001	0.000	0.001	0.000	0.004	0.001	0.001
505.00	-0.000	0.000	0.001	0.003	0.002	0.002	0.001	0.001	0.000	0.001	0.000	0.004	0.001	0.001
506.00	-0.000	0.000	0.001	0.003	0.002	0.002	0.001	0.001	0.000	0.001	0.000	0.004	0.001	0.001
507.00	-0.000	0.000	0.001	0.003	0.002	0.002	0.001	0.001	0.000	0.001	0.000	0.004	0.001	0.001
508.00	-0.000	0.000	0.001	0.003	0.002	0.002	0.001	0.001	0.000	0.001	0.000	0.004	0.001	0.001
509.00	-0.000	0.000	0.001	0.003	0.002	0.002	0.001	0.001	0.000	0.001	0.000	0.004	0.001	0.001
510.00	-0.000	0.000	0.001	0.003	0.002	0.002	0.001	0.001	0.000	0.001	0.000	0.004	0.001	0.001
511.00	-0.000	0.000	0.001	0.003	0.002	0.002	0.001	0.001	0.000	0.001	0.000	0.004	0.000	0.001
512.00	-0.000	0.000	0.001	0.003	0.002	0.002	0.001	0.001	0.000	0.001	0.000	0.004	0.000	0.001
513.00	-0.000	0.000	0.001	0.003	0.002	0.002	0.001	0.001	0.000	0.000	0.000	0.004	0.001	0.001
514.00	-0.000	0.000	0.001	0.003	0.002	0.002	0.001	0.001	0.000	0.000	0.000	0.004	0.000	0.001
515.00	-0.000	0.000	0.001	0.003	0.002	0.002	0.001	0.001	0.000	0.000	0.000	0.004	0.000	0.001
516.00	-0.000	0.000	0.001	0.002	0.002	0.002	0.001	0.001	0.000	0.000	0.000	0.004	0.000	0.001
517.00	-0.001	0.000	0.001	0.002	0.002	0.002	0.001	0.001	0.000	0.000	0.000	0.004	0.000	0.001
518.00	-0.001	0.000	0.001	0.002	0.002	0.002	0.000	0.001	0.000	0.000	-0.000	0.004	0.000	0.001
519.00	-0.001	0.000	0.001	0.002	0.002	0.002	0.000	0.001	0.000	0.000	-0.000	0.004	0.000	0.001
520.00	-0.000	0.000	0.001	0.002	0.002	0.002	0.001	0.001	0.000	0.000	-0.000	0.004	0.000	0.001
521.00	-0.000	0.000	0.001	0.002	0.002	0.002	0.001	0.001	0.000	0.000	-0.000	0.004	0.000	0.001
522.00	-0.000	0.000	0.001	0.002	0.002	0.002	0.000	0.001	0.000	0.000	-0.000	0.004	0.000	0.001
523.00	-0.001	0.000	0.001	0.002	0.002	0.001	0.000	0.001	0.000	0.000	-0.000	0.004	0.000	0.001
524.00	-0.001	0.000	0.001	0.002	0.002	0.001	0.000	0.001	0.000	0.000	-0.000	0.004	0.000	0.001
525.00	-0.000	0.000	0.001	0.002	0.002	0.002	0.000	0.001	0.000	0.000	0.000	0.004	0.000	0.001
526.00	-0.000	0.000	0.001	0.002	0.002	0.002	0.001	0.001	0.000	0.000	0.000	0.004	0.000	0.001
527.00	-0.000	0.000	0.001	0.002	0.002	0.002	0.000	0.001	0.000	0.000	0.000	0.004	0.000	0.001
528.00	-0.000	0.000	0.001	0.002	0.002	0.001	0.000	0.001	0.000	0.000	0.000	0.004	0.000	0.001
529.00	-0.000	0.000	0.001	0.002	0.002	0.001	0.000	0.001	0.000	0.000	-0.000	0.004	0.000	0.001
530.00	-0.000	0.000	0.001	0.002	0.002	0.002	0.000	0.001	0.000	0.000	-0.000	0.004	0.000	0.001
531.00	-0.000	0.000	0.001	0.002	0.002	0.002	0.000	0.001	0.000	0.000	-0.000	0.004	0.000	0.001
532.00	-0.000	0.000	0.001	0.002	0.002	0.001	0.000	0.001	0.000	0.000	-0.000	0.004	0.000	0.001
533.00	-0.000	0.000	0.001	0.002	0.002	0.002	0.000	0.001	0.000	0.000	-0.000	0.004	0.000	0.001
534.00	-0.000	0.000	0.001	0.002	0.002	0.002	0.000	0.001	0.000	0.000	-0.000	0.004	0.000	0.001
535.00	-0.000	0.000	0.001	0.002	0.002	0.002	0.001	0.001	0.000	0.001	0.000	0.004	0.000	0.001
536.00	0.001	0.001	0.002	0.003	0.003	0.003	0.001	0.002	0.001	0.001	0.001	0.005	0.001	0.002
537.00	-0.000	0.000	0.001	0.002	0.002	0.002	0.001	0.001	0.000	0.000	0.000	0.004	0.000	0.001
538.00	-0.000	0.000	0.001	0.002	0.001	0.001	0.000	0.001	-0.000	0.000	-0.000	0.003	0.000	0.000
539.00	-0.000	0.000	0.001	0.002	0.001	0.001	0.000	0.001	-0.000	0.000	-0.000	0.003	0.000	0.000
540.00	-0.000	0.000	0.001	0.002	0.001	0.001	0.000	0.001	-0.000	0.000	-0.000	0.003	0.000	0.000
541.00	-0.000	0.000	0.001	0.002	0.001	0.002	0.000	0.001	-0.000	0.000	-0.000	0.003	0.000	0.000
542.00	-0.000	0.000	0.001	0.002	0.001	0.002	0.000	0.001	-0.000	0.000	-0.000	0.003	0.000	0.000
543.00	-0.000	0.000	0.001	0.002	0.001	0.001	0.000	0.001	-0.000	0.000	-0.000	0.003	0.000	0.000
544.00	-0.000	0.000	0.001	0.002	0.002	0.001	0.000	0.001	-0.000	0.000	-0.000	0.003	0.000	0.001
545.00	-0.000	0.000	0.001	0.002	0.002	0.002	0.000	0.001	-0.000	0.000	-0.000	0.003	0.000	0.000
546.00	-0.000	0.000	0.001	0.002	0.001	0.001	0.000	0.001	-0.000	0.000	-0.000	0.003	0.000	0.000
547.00	-0.000	0.000	0.001	0.002	0.001	0.001	0.000	0.001	-0.000	0.000	-0.000	0.003	0.000	0.000
548.00	-0.000	0.000	0.001	0.002	0.002	0.001	0.000	0.001	0.000	0.000	-0.000	0.003	0.000	0.000
549.00	-0.000	0.000	0.001	0.002	0.001	0.001	0.000	0.001	0.000	0.000	-0.000	0.003	0.000	0.000
550.00	-0.000	0.000	0.001	0.002	0.001	0.001	0.000	0.001	0.000	0.000	-0.000	0.003	0.000	0.000
551.00	-0.000	0.000	0.001	0.002	0.001	0.001	0.000	0.001	-0.000	0.000	-0.000	0.003	0.000	0.000
552.00	-0.000	0.000	0.001	0.002	0.001	0.001	0.000	0.001	0.000	0.000	-0.000	0.003	0.000	0.000
553.00	-0.000	0.000	0.001	0.002	0.001	0.001	0.000	0.001	0.000	0.000	-0.000	0.003	0.000	0.001
554.00	-0.000	0.000	0.001	0.002	0.001	0.001	0.000	0.001	0.000	0.000	-0.000	0.003	0.000	0.000
555.00	-0.000	0.000	0.001	0.002	0.001	0.002	0.000	0.001	0.000	0.000	-0.000	0.003	0.000	0.001
556.00	-0.000	0.000	0.001	0.002	0.001	0.001	0.000	0.001	0.000	0.000	-0.000	0.003	0.000	0.000
557.00	-0.000	0.000	0.001	0.002	0.001	0.001	0.000	0.001	0.000	0.000	-0.000	0.003	0.000	0.000
558.00	-0.000	0.000	0.001	0.002	0.001	0.002	0.000	0.001	0.000	0.000	0.000	0.003	0.000	0.001
559.00	-0.000	0.000	0.001	0.002	0.002	0.001	0.000	0.001	0.000	0.000	0.000	0.003	0.000	0.000
560.00	-0.000	0.000	0.001	0.002	0.001	0.001	0.000	0.001	0.000	0.000	-0.000	0.003	0.000	0.000
561.00	-0.000	0.000	0.001	0.002	0.001	0.001	0.000	0.001	0.000	0.000	-0.000	0.003	0.000	0.000
562.00	-0.000	0.000	0.001	0.002	0.001	0.001	0.000	0.001	0.000	0.000	0.000	0.003	0.000	0.000
563.00	-0.000	0.000	0.001	0.002	0.001	0.001	0.000	0.001	0.000	0.000	-0.000	0.003	0.000	0.000
564.00	-0.000	0.000	0.001	0.002	0.001	0.001	0.000	0.001	0.000	0.000	-0.000	0.003	0.000	0.000
565.00	-0.000	0.000	0.001	0.002	0.001	0.001	0.000	0.001	0.000	0.000	0.000	0.003	0.000	0.000
566.00	-0.000	0.000	0.001	0.002	0.001	0.001	0.000	0.001	0.000	0.000	-0.000	0.003	0.000	0.001
567.00	-0.000	0.000	0.001	0.002	0.001	0.001	0.000	0.001	0.000	0.000	-0.000	0.003	0.000	0.001
568.00	-0.000	0.000	0.001	0.002	0.001	0.001	0.000	0.001	0.000	0.000	0.000	0.003	0.000	0.001
569.00	-0.000	0.000	0.001	0.002	0.001	0.001	0.000	0.001	0.000	0.000	0.000	0.003	0.000	0.001
570.00	-0.000	0.000	0.001	0.002	0.001	0.001	0.000	0.001	0.000	0.000	0.000	0.003	0.000	0.001
571.00	-0.000	0.000	0.001	0.002	0.001	0.001	0.000	0.001	0.000	0.000	0.000	0.003	0.000	0.001
572.00	-0.000	0.000	0.001	0.002	0.001	0.001	0.000	0.001	0.000	0.000	0.000	0.003	0.000	0.001
573.00	-0.000	0.000	0.001	0.002	0.001	0.001	0.000	0.001	0.000	0.000	0.000	0.003	0.000	0.001
574.00	-0.000	0.000	0.001	0.002	0.001	0.001	0.000	0.001	0.000	0.000	-0.000	0.003	0.000	0.001
575.00	-0.000	0.000	0.001	0.002	0.001	0.001	0.000	0.001	0.000	0.000	-0.000	0.003	0.000	0.001
576.00	-0.000	0.000	0.001	0.002	0.001	0.001	0.000	0.001	0.000	0.000	-0.000	0.003	0.000	0.001
577.00	-0.000	0.000	0.001	0.002	0.001	0.001	0.000	0.001	0.000	0.000	-0.000	0.003	0.000	0.001
578.00	-0.000	0.000	0.001	0.002	0.001	0.001	0.000	0.001	0.000	0.000	0.000	0.003	0.000	0.001
579.00	-0.000	0.000	0.001	0.002	0.001	0.001	0.000	0.001	0.000	0.000	0.000	0.003	0.000	0.001
580.00	-0.000	0.000	0.001	0.002	0.001	0.001	0.000	0.001	0.000	0.000	0.000	0.003	0.000	0.001
581.00	-0.000	0.000	0.001	0.002	0.001	0.001	0.000	0.001	0.000	0.000	0.000	0.003	0.000	0.001
582.00	-0.000	0.000	0.001	0.002	0.001	0.001	0.000	0.001	0.000	0.000	0.000	0.003	0.000	0.001
583.00	-0.000	0.000	0.001	0.002	0.001	0.001	0.000	0.001	0.000	0.000	0.000	0.003	0.000	0.001
584.00	-0.000	0.000	0.001	0.002	0.001	0.001	0.000	0.001	0.000	0.000	-0.000	0.003	0.000	0.001
585.00	-0.000	0.000	0.001	0.002	0.001	0.001	0.000	0.001	0.000	0.000	-0.000	0.003	0.000	0.001
586.00	-0.000	0.000	0.001	0.002	0.001	0.001	0.000	0.001	0.000	0.000	-0.000	0.003	0.000	0.001
587.00	-0.000	0.000	0.001	0.002	0.001	0.001	0.000	0.001	0.000	0.000	-0.000	0.003	0.000	0.001
588.00	-0.000	0.000	0.001	0.002	0.001	0.001	0.000	0.001	0.000	0.000	-0.000	0.003	0.000	0.000
589.00	-0.000	0.000	0.001	0.002	0.001	0.001	0.000	0.001	0.000	0.000	-0.000	0.003	0.000	0.000
590.00	-0.000	0.000	0.001	0.002	0.001	0.001	0.000	0.001	0.000	0.000	-0.000	0.003	0.000	0.000
591.00	-0.000	0.000	0.001	0.002	0.001	0.001	0.000	0.001	0.000	0.000	-0.000	0.003	0.000	0.000
592.00	-0.000	0.000	0.001	0.002	0.001	0.001	0.000	0.001	0.000	0.000	-0.000	0.003	0.000	0.000
593.00	-0.000	0.000	0.001	0.002	0.001	0.001	0.000	0.001	0.000	0.000	-0.000	0.003	0.000	0.000
594.00	-0.000	0.000	0.001	0.002	0.001	0.001	0.000	0.001	0.000	0.000	0.000	0.003	0.000	0.000
595.00	-0.000	0.000	0.001	0.002	0.001	0.001	0.000	0.001	0.000	0.000	0.000	0.003	0.000	0.001
596.00	-0.000	0.000	0.001	0.002	0.001	0.001	0.000	0.001	0.000	0.000	-0.000	0.003	0.000	0.000
597.00	-0.000	0.000	0.001	0.002	0.001	0.001	0.000	0.001	0.000	0.000	-0.000	0.003	0.000	0.000
598.00	-0.000	0.000	0.001	0.002	0.001	0.001	0.000	0.001	0.000	0.000	-0.000	0.003	0.000	0.000
599.00	-0.000	0.000	0.001	0.002	0.001	0.001	0.000	0.001	0.000	0.000	-0.000	0.003	0.000	0.000
600.00	-0.000	0.000	0.001	0.002	0.001	0.001	0.000	0.001	0.000	0.000	-0.000	0.003	0.000	0.000
601.00	-0.000	0.000	0.001	0.002	0.001	0.001	0.000	0.001	0.000	0.000	-0.000	0.003	0.000	0.000
602.00	-0.000	0.000	0.001	0.002	0.001	0.001	0.000	0.001	0.000	0.000	-0.000	0.003	0.000	0.000
603.00	-0.000	0.000	0.001	0.002	0.001	0.001	0.000	0.001	0.000	0.000	-0.000	0.003	0.000	0.000
604.00	-0.000	0.000	0.001	0.002	0.001	0.001	0.000	0.001	0.000	0.000	-0.000	0.003	0.000	0.000
605.00	-0.000	-0.000	0.001	0.002	0.001	0.001	0.000	0.001	-0.000	0.000	-0.000	0.003	0.000	0.000
606.00	-0.000	0.000	0.001	0.002	0.001	0.001	0.000	0.001	0.000	0.000	-0.000	0.003	0.000	0.000
607.00	-0.000	0.000	0.001	0.002	0.001	0.001	0.000	0.001	-0.000	0.000	-0.000	0.003	0.000	0.000
608.00	-0.000	0.000	0.001	0.002	0.001	0.001	0.000	0.000	-0.000	0.000	-0.000	0.003	0.000	0.000
609.00	-0.000	0.000	0.001	0.002	0.001	0.001	0.000	0.000	-0.000	0.000	-0.000	0.003	0.000	0.000
610.00	-0.000	-0.000	0.001	0.002	0.001	0.001	0.000	0.000	-0.000	0.000	-0.000	0.003	-0.000	0.000
611.00	-0.000	0.000	0.001	0.002	0.001	0.001	0.000	0.000	-0.000	0.000	-0.000	0.003	0.000	0.000
612.00	-0.000	0.000	0.001	0.002	0.001	0.001	0.000	0.000	-0.000	0.000	-0.000	0.003	-0.000	0.000
613.00	-0.000	-0.000	0.001	0.002	0.001	0.001	0.000	0.000	-0.000	0.000	-0.000	0.003	-0.000	0.000
614.00	-0.000	-0.000	0.001	0.001	0.001	0.001	0.000	0.000	-0.000	0.000	-0.000	0.003	-0.000	0.000
615.00	-0.000	-0.000	0.001	0.002	0.001	0.001	0.000	0.000	-0.000	0.000	-0.000	0.003	-0.000	0.000
616.00	-0.000	-0.000	0.001	0.002	0.001	0.001	0.000	0.000	-0.000	0.000	-0.000	0.003	-0.000	0.000
617.00	-0.000	-0.000	0.001	0.002	0.001	0.001	0.000	0.000	-0.000	0.000	-0.000	0.003	-0.000	0.000
618.00	-0.000	-0.000	0.001	0.002	0.001	0.001	0.000	0.000	-0.000	0.000	-0.000	0.003	-0.000	0.000
619.00	-0.000	-0.000	0.001	0.001	0.001	0.001	0.000	0.000	-0.000	0.000	-0.000	0.003	-0.000	0.000
620.00	-0.000	-0.000	0.001	0.001	0.001	0.001	0.000	0.000	-0.000	0.000	-0.000	0.003	-0.000	0.000
621.00	-0.000	-0.000	0.001	0.001	0.001	0.001	0.000	0.000	-0.000	0.000	-0.000	0.003	-0.000	0.000
622.00	-0.000	-0.000	0.001	0.001	0.001	0.001	0.000	0.000	-0.000	0.000	-0.000	0.003	-0.000	0.000
623.00	-0.000	-0.000	0.001	0.001	0.001	0.001	0.000	0.000	-0.000	0.000	-0.000	0.003	-0.000	0.000
624.00	-0.000	-0.000	0.001	0.001	0.001	0.001	0.000	0.000	-0.000	0.000	-0.000	0.003	-0.000	0.000
625.00	-0.000	-0.000	0.001	0.001	0.001	0.001	0.000	0.000	-0.000	0.000	-0.000	0.003	-0.000	0.000
626.00	-0.000	-0.000	0.001	0.001	0.001	0.001	0.000	0.000	-0.000	0.000	-0.000	0.003	-0.000	0.000
627.00	-0.000	-0.000	0.001	0.001	0.001	0.001	0.000	0.000	-0.000	0.000	-0.000	0.003	-0.000	0.000
628.00	-0.000	-0.000	0.000	0.001	0.001	0.001	0.000	0.000	-0.000	0.000	-0.000	0.003	-0.000	-0.000
629.00	-0.000	-0.000	0.001	0.001	0.001	0.001	0.000	0.000	-0.000	0.000	-0.000	0.003	-0.000	-0.000
630.00	-0.000	-0.000	0.001	0.001	0.001	0.001	0.000	0.000	-0.000	0.000	-0.000	0.003	-0.000	-0.000
631.00	-0.000	-0.000	0.001	0.001	0.001	0.001	-0.000	0.000	-0.000	-0.000	-0.000	0.003	-0.000	0.000
632.00	-0.000	-0.000	0.000	0.001	0.001	0.001	-0.000	0.000	-0.000	-0.000	-0.000	0.003	-0.000	0.000
633.00	-0.000	-0.000	0.001	0.001	0.001	0.001	-0.000	0.000	-0.000	0.000	-0.000	0.002	-0.000	-0.000
634.00	-0.000	-0.000	0.001	0.001	0.001	0.001	0.000	0.000	-0.000	0.000	-0.000	0.003	-0.000	-0.000
635.00	-0.000	-0.000	0.000	0.001	0.001	0.001	-0.000	0.000	-0.000	0.000	-0.000	0.002	-0.000	-0.000
636.00	-0.000	-0.000	0.000	0.001	0.001	0.001	-0.000	0.000	-0.000	-0.000	-0.000	0.002	-0.000	-0.000
637.00	-0.000	-0.000	0.000	0.001	0.001	0.001	-0.000	0.000	-0.000	-0.000	-0.000	0.002	-0.000	-0.000
638.00	-0.000	-0.000	0.000	0.001	0.001	0.001	-0.000	0.000	-0.000	-0.000	-0.000	0.002	-0.000	-0.000
639.00	-0.000	-0.000	0.000	0.001	0.001	0.001	-0.000	0.000	-0.000	-0.000	-0.000	0.002	-0.000	-0.000
640.00	-0.000	-0.000	0.000	0.001	0.001	0.001	-0.000	0.000	-0.000	-0.000	-0.000	0.002	-0.000	-0.000
641.00	-0.000	-0.000	0.000	0.001	0.001	0.001	-0.000	0.000	-0.000	-0.000	-0.000	0.002	-0.000	-0.000
642.00	-0.000	-0.000	0.000	0.001	0.001	0.001	-0.000	0.000	-0.000	-0.000	-0.000	0.002	-0.000	-0.000
643.00	-0.000	-0.000	0.000	0.001	0.001	0.001	-0.000	0.000	-0.000	-0.000	-0.000	0.002	-0.000	-0.000
644.00	-0.000	-0.000	0.000	0.001	0.001	0.001	-0.000	0.000	-0.000	-0.000	-0.000	0.002	-0.000	-0.000
645.00	-0.000	-0.000	0.000	0.001	0.001	0.001	-0.000	0.000	-0.000	-0.000	-0.000	0.002	-0.000	-0.000
646.00	-0.000	-0.000	0.000	0.001	0.001	0.001	-0.000	0.000	-0.000	-0.000	-0.000	0.002	-0.000	-0.000
647.00	-0.000	-0.000	0.000	0.001	0.001	0.001	-0.000	0.000	-0.000	0.000	-0.000	0.002	-0.000	-0.000
648.00	-0.000	-0.000	0.000	0.001	0.001	0.001	-0.000	0.000	-0.000	0.000	-0.000	0.003	-0.000	-0.000
649.00	-0.000	-0.000	0.000	0.001	0.001	0.001	-0.000	0.000	-0.000	-0.000	-0.000	0.002	-0.000	-0.000
650.00	-0.000	-0.000	0.000	0.001	0.001	0.001	-0.000	0.000	-0.000	-0.000	-0.000	0.002	-0.000	-0.000
651.00	-0.000	-0.000	0.000	0.001	0.001	0.001	-0.000	0.000	-0.000	-0.000	-0.000	0.002	-0.000	0.000
652.00	-0.000	-0.000	0.000	0.001	0.001	0.001	-0.000	0.000	-0.000	-0.000	-0.000	0.002	-0.000	-0.000
653.00	-0.000	-0.000	0.000	0.001	0.001	0.001	-0.000	0.000	-0.000	-0.000	-0.000	0.003	-0.000	-0.000
654.00	-0.000	-0.000	0.000	0.001	0.001	0.001	-0.000	0.000	-0.000	-0.000	-0.000	0.003	-0.000	-0.000
655.00	-0.000	-0.000	0.000	0.001	0.001	0.001	-0.000	0.000	-0.000	-0.000	-0.000	0.003	-0.000	-0.000
656.00	-0.000	-0.000	0.000	0.001	0.001	0.001	-0.000	0.000	-0.000	-0.000	-0.000	0.003	-0.000	0.000
657.00	-0.000	-0.000	0.000	0.001	0.001	0.001	-0.000	0.000	-0.000	-0.000	-0.000	0.002	-0.000	0.000
658.00	-0.000	-0.000	0.000	0.001	0.001	0.001	-0.000	0.000	-0.000	-0.000	-0.000	0.002	-0.000	0.000
659.00	-0.000	-0.000	0.000	0.001	0.001	0.001	-0.000	0.000	-0.000	-0.000	-0.000	0.002	-0.000	0.000
660.00	-0.000	-0.000	0.000	0.001	0.001	0.001	-0.000	0.000	-0.000	-0.000	-0.000	0.002	-0.000	0.000
661.00	-0.000	-0.000	0.000	0.001	0.001	0.001	-0.000	0.000	-0.000	-0.000	-0.000	0.002	-0.000	0.000
662.00	-0.000	-0.000	0.000	0.001	0.001	0.001	-0.000	0.000	-0.000	-0.000	-0.000	0.002	-0.000	-0.000
663.00	-0.000	-0.000	0.000	0.001	0.001	0.001	-0.000	0.000	-0.000	-0.000	-0.000	0.002	-0.000	-0.000
664.00	-0.000	-0.000	0.000	0.001	0.001	0.001	-0.000	0.000	-0.000	-0.000	-0.000	0.002	-0.000	-0.000
665.00	-0.000	-0.000	0.000	0.001	0.001	0.001	-0.000	0.000	-0.000	-0.000	-0.000	0.002	-0.000	-0.000
666.00	-0.000	-0.000	0.000	0.001	0.001	0.001	-0.000	0.000	-0.000	-0.000	-0.000	0.002	-0.000	-0.000
667.00	-0.000	-0.000	0.000	0.001	0.001	0.001	-0.000	0.000	-0.000	-0.000	-0.000	0.002	-0.000	-0.000
668.00	-0.000	-0.000	0.000	0.001	0.001	0.001	-0.000	0.000	-0.000	-0.000	-0.000	0.002	-0.000	-0.000
669.00	-0.000	-0.000	0.000	0.001	0.001	0.001	-0.000	0.000	-0.000	-0.000	-0.000	0.002	-0.000	0.000
670.00	-0.000	-0.000	0.000	0.001	0.001	0.001	-0.000	0.000	-0.000	-0.000	-0.000	0.002	-0.000	0.000
671.00	-0.000	-0.000	0.000	0.001	0.001	0.001	-0.000	0.000	-0.000	-0.000	-0.000	0.002	-0.000	0.000
672.00	-0.000	-0.000	0.000	0.001	0.001	0.001	-0.000	0.000	-0.000	-0.000	-0.000	0.002	-0.000	0.000
673.00	-0.000	-0.000	0.000	0.001	0.001	0.001	-0.000	0.000	-0.000	-0.000	-0.000	0.002	-0.000	0.000
674.00	-0.000	-0.000	0.000	0.001	0.001	0.001	-0.000	0.000	-0.000	-0.000	-0.000	0.002	-0.000	-0.000
675.00	-0.000	-0.000	0.000	0.001	0.001	0.001	-0.000	0.000	-0.000	-0.000	-0.000	0.002	-0.000	0.000
676.00	-0.000	-0.000	0.000	0.001	0.001	0.001	-0.000	0.000	-0.000	-0.000	-0.000	0.002	-0.000	0.000
677.00	-0.000	-0.000	0.000	0.001	0.001	0.001	-0.000	0.000	-0.000	-0.000	-0.000	0.002	-0.000	0.000
678.00	-0.000	-0.000	0.000	0.001	0.001	0.001	-0.000	0.000	-0.000	-0.000	-0.000	0.002	-0.000	-0.000
679.00	-0.000	-0.000	0.000	0.001	0.001	0.001	-0.000	0.000	-0.000	-0.000	-0.000	0.002	-0.000	-0.000
680.00	-0.000	-0.000	0.000	0.001	0.001	0.001	-0.000	0.000	-0.000	-0.000	-0.000	0.002	-0.000	0.000
681.00	-0.000	-0.000	0.000	0.001	0.001	0.001	-0.000	0.000	-0.000	-0.000	-0.000	0.002	-0.000	-0.000
682.00	-0.000	-0.000	0.000	0.001	0.001	0.001	-0.000	0.000	-0.000	-0.000	-0.000	0.002	-0.000	-0.000
683.00	-0.000	-0.000	0.000	0.001	0.001	0.001	-0.000	0.000	-0.000	-0.000	-0.000	0.002	-0.000	-0.000
684.00	-0.000	-0.000	0.000	0.001	0.001	0.001	-0.000	0.000	-0.000	-0.000	-0.000	0.002	-0.000	-0.000
685.00	-0.000	-0.000	0.000	0.001	0.001	0.001	-0.000	0.000	-0.000	-0.000	-0.000	0.002	-0.000	0.000
686.00	-0.000	-0.000	0.000	0.001	0.001	0.001	-0.000	0.000	-0.000	-0.000	-0.000	0.002	-0.000	0.000
687.00	-0.000	-0.000	0.000	0.001	0.001	0.001	-0.000	0.000	-0.000	0.000	-0.000	0.002	-0.000	0.000
688.00	-0.000	-0.000	0.000	0.001	0.001	0.001	-0.000	0.000	-0.000	-0.000	-0.000	0.002	-0.000	-0.000
689.00	-0.000	-0.000	0.000	0.001	0.001	0.001	-0.000	0.000	-0.000	-0.000	-0.000	0.002	-0.000	-0.000
690.00	-0.000	-0.000	0.000	0.001	0.001	0.001	-0.000	0.000	-0.000	-0.000	-0.000	0.002	-0.000	-0.000
691.00	-0.000	-0.000	0.000	0.001	0.001	0.001	-0.000	0.000	-0.000	-0.000	-0.000	0.002	-0.000	-0.000
692.00	-0.000	-0.000	0.000	0.001	0.001	0.001	-0.000	0.000	-0.000	-0.000	-0.000	0.002	-0.000	-0.000
693.00	-0.000	-0.000	0.000	0.001	0.001	0.001	-0.000	0.000	-0.000	-0.000	-0.000	0.002	-0.000	-0.000
694.00	-0.000	-0.000	0.000	0.001	0.001	0.001	-0.000	0.000	-0.000	-0.000	-0.000	0.002	-0.000	-0.000
695.00	-0.000	-0.000	0.000	0.001	0.001	0.001	0.000	0.000	-0.000	-0.000	-0.000	0.002	-0.000	-0.000
696.00	-0.000	-0.000	0.000	0.001	0.001	0.001	0.000	0.000	-0.000	-0.000	-0.000	0.002	-0.000	-0.000
697.00	-0.000	-0.000	0.000	0.001	0.001	0.001	-0.000	0.000	-0.000	-0.000	-0.000	0.002	-0.000	-0.000
698.00	-0.000	-0.000	0.000	0.001	0.001	0.001	-0.000	0.000	-0.000	0.000	-0.000	0.002	-0.000	-0.000
699.00	-0.000	-0.000	0.000	0.001	0.001	0.001	-0.000	0.000	-0.000	-0.000	-0.000	0.002	-0.000	-0.000
700.00	-0.000	-0.000	0.000	0.001	0.001	0.001	-0.000	0.000	-0.000	0.000	-0.000	0.002	-0.000	-0.000
701.00	-0.000	-0.000	0.000	0.001	0.001	0.001	0.000	0.000	-0.000	-0.000	-0.000	0.002	-0.000	-0.000
702.00	-0.000	-0.000	0.000	0.001	0.001	0.001	-0.000	0.000	-0.000	-0.000	-0.000	0.002	-0.000	-0.000
703.00	-0.000	-0.000	0.000	0.001	0.001	0.001	-0.000	0.000	-0.000	-0.000	-0.000	0.002	-0.000	-0.000
704.00	-0.000	-0.000	0.000	0.001	0.001	0.001	-0.000	0.000	-0.000	-0.000	-0.000	0.002	-0.000	-0.000
705.00	-0.000	-0.000	0.000	0.001	0.001	0.001	-0.000	0.000	-0.000	-0.000	-0.000	0.002	-0.000	-0.000
706.00	-0.000	-0.000	0.000	0.001	0.001	0.001	-0.000	0.000	-0.000	0.000	-0.000	0.002	-0.000	-0.000
707.00	-0.000	-0.000	0.000	0.001	0.001	0.001	-0.000	0.000	-0.000	-0.000	-0.000	0.002	-0.000	-0.000
708.00	-0.000	-0.000	0.000	0.001	0.001	0.001	-0.000	0.000	-0.000	-0.000	-0.000	0.002	-0.000	-0.000
709.00	-0.000	-0.000	0.000	0.001	0.001	0.001	-0.000	0.000	-0.000	-0.000	-0.000	0.002	-0.000	-0.000
710.00	-0.000	-0.000	0.000	0.001	0.001	0.001	-0.000	0.000	-0.000	-0.000	-0.000	0.002	-0.000	-0.000
711.00	-0.000	-0.000	0.000	0.001	0.001	0.001	-0.000	0.000	-0.000	-0.000	-0.000	0.002	-0.000	-0.000
712.00	-0.000	-0.000	0.000	0.001	0.001	0.001	-0.000	0.000	-0.000	0.000	-0.000	0.002	-0.000	-0.000
713.00	-0.000	-0.000	0.000	0.001	0.001	0.001	-0.000	0.000	-0.000	-0.000	-0.000	0.002	-0.000	-0.000
714.00	-0.000	-0.000	0.000	0.001	0.001	0.001	-0.000	0.000	-0.000	-0.000	-0.000	0.002	-0.000	-0.000
715.00	-0.000	-0.000	0.000	0.001	0.001	0.001	-0.000	0.000	-0.000	-0.000	-0.000	0.002	-0.000	-0.000
716.00	-0.000	-0.000	0.000	0.001	0.001	0.001	-0.000	0.000	-0.000	-0.000	-0.000	0.002	-0.000	-0.000
717.00	-0.000	-0.000	0.000	0.001	0.001	0.001	-0.000	0.000	-0.000	-0.000	-0.000	0.002	-0.000	-0.000
718.00	-0.000	-0.000	0.000	0.001	0.001	0.001	-0.000	0.000	-0.000	-0.000	-0.000	0.002	-0.000	-0.000
719.00	-0.000	-0.000	0.000	0.001	0.001	0.001	-0.000	0.000	-0.000	-0.000	-0.000	0.002	-0.000	-0.000
720.00	-0.000	-0.000	0.000	0.001	0.001	0.001	-0.000	0.000	-0.000	-0.000	-0.000	0.002	-0.000	-0.000
721.00	-0.000	-0.000	0.000	0.001	0.001	0.001	-0.000	0.000	-0.000	0.000	-0.000	0.002	-0.000	-0.000
722.00	-0.000	-0.000	0.000	0.001	0.001	0.001	-0.000	0.000	-0.000	-0.000	-0.000	0.002	-0.000	-0.000
723.00	-0.000	-0.000	0.000	0.001	0.001	0.001	-0.000	0.000	-0.000	-0.000	-0.000	0.002	-0.000	-0.000
724.00	-0.000	-0.000	0.000	0.001	0.001	0.001	-0.000	0.000	-0.000	-0.000	-0.000	0.002	-0.000	-0.000
725.00	-0.000	-0.000	0.000	0.001	0.001	0.001	-0.000	0.000	-0.000	-0.000	-0.000	0.002	-0.000	-0.000
726.00	-0.000	-0.000	0.000	0.001	0.001	0.001	-0.000	0.000	-0.000	-0.000	-0.000	0.002	-0.000	-0.000
727.00	-0.000	-0.000	0.000	0.001	0.001	0.001	0.000	0.000	-0.000	0.000	-0.000	0.002	-0.000	-0.000
728.00	-0.000	-0.000	0.000	0.001	0.001	0.001	-0.000	0.000	-0.000	-0.000	-0.000	0.002	-0.000	-0.000
729.00	-0.000	-0.000	0.000	0.001	0.001	0.001	-0.000	0.000	-0.000	-0.000	-0.000	0.002	-0.000	-0.000
730.00	-0.000	-0.000	0.000	0.001	0.001	0.001	-0.000	0.000	-0.000	-0.000	-0.000	0.002	-0.000	-0.000
731.00	-0.000	-0.000	0.000	0.001	0.001	0.001	-0.000	0.000	-0.000	-0.000	-0.000	0.002	-0.000	-0.000
732.00	-0.000	-0.000	0.000	0.001	0.001	0.001	-0.000	0.000	-0.000	-0.000	-0.000	0.002	-0.000	-0.000
733.00	-0.000	-0.000	0.000	0.001	0.001	0.001	-0.000	0.000	-0.000	-0.000	-0.000	0.002	-0.000	-0.000
734.00	-0.000	-0.000	0.000	0.001	0.001	0.001	-0.000	0.000	-0.000	-0.000	-0.000	0.002	-0.000	-0.000
735.00	-0.000	-0.000	0.000	0.001	0.001	0.001	-0.000	0.000	-0.000	-0.000	-0.000	0.002	-0.000	-0.000
736.00	-0.000	-0.000	0.000	0.001	0.001	0.001	-0.000	0.000	-0.000	0.000	-0.000	0.002	-0.000	-0.000
737.00	-0.000	-0.000	0.000	0.001	0.001	0.001	-0.000	0.000	-0.000	-0.000	-0.000	0.002	-0.000	-0.000
738.00	-0.000	-0.000	0.000	0.001	0.001	0.001	-0.000	0.000	-0.000	-0.000	-0.000	0.002	-0.000	-0.000
739.00	-0.000	-0.000	0.000	0.001	0.001	0.001	-0.000	0.000	-0.000	-0.000	-0.000	0.002	-0.000	-0.000
740.00	-0.000	-0.000	0.000	0.001	0.001	0.001	-0.000	0.000	-0.000	-0.000	-0.000	0.002	-0.000	-0.000
741.00	-0.000	-0.000	0.000	0.001	0.001	0.001	-0.000	0.000	-0.000	-0.000	-0.000	0.002	-0.000	-0.000
742.00	-0.000	-0.000	0.000	0.001	0.001	0.001	-0.000	0.000	-0.000	-0.000	-0.000	0.002	-0.000	-0.000
743.00	-0.000	-0.000	0.000	0.001	0.001	0.001	-0.000	0.000	-0.000	0.000	-0.000	0.002	-0.000	-0.000
744.00	-0.000	-0.000	0.000	0.001	0.001	0.001	-0.000	0.000	-0.000	-0.000	-0.000	0.002	-0.000	-0.000
745.00	-0.000	-0.000	0.000	0.001	0.001	0.001	-0.000	0.000	-0.000	-0.000	-0.000	0.002	-0.000	-0.000
746.00	-0.000	-0.000	0.000	0.001	0.001	0.001	-0.000	0.000	-0.000	-0.000	-0.000	0.002	-0.000	-0.000
747.00	-0.000	-0.000	0.000	0.001	0.001	0.001	-0.000	0.000	-0.000	-0.000	-0.000	0.002	-0.000	-0.000
748.00	-0.000	-0.000	0.000	0.001	0.001	0.001	-0.000	0.000	-0.000	0.000	-0.000	0.002	-0.000	-0.000
749.00	-0.000	-0.000	0.000	0.001	0.001	0.001	-0.000	0.000	-0.000	0.000	-0.000	0.002	-0.000	-0.000
750.00	-0.000	-0.000	0.000	0.001	0.001	0.001	-0.000	0.000	-0.000	0.000	-0.000	0.002	-0.000	-0.000
751.00	-0.000	-0.000	0.000	0.001	0.001	0.001	-0.000	0.000	-0.000	-0.000	-0.000	0.002	-0.000	-0.000
752.00	-0.000	-0.000	0.000	0.001	0.001	0.001	-0.000	0.000	-0.000	-0.000	-0.000	0.002	-0.000	-0.000
753.00	-0.000	-0.000	0.000	0.001	0.001	0.001	-0.000	0.000	-0.000	-0.000	-0.000	0.002	-0.000	-0.000
754.00	-0.000	-0.000	0.000	0.001	0.001	0.001	-0.000	0.000	-0.000	0.000	-0.000	0.002	-0.000	-0.000
755.00	-0.000	-0.000	0.000	0.001	0.001	0.001	-0.000	0.000	-0.000	0.000	-0.000	0.002	-0.000	-0.000
756.00	-0.000	-0.000	0.000	0.001	0.001	0.001	-0.000	0.000	-0.000	0.000	-0.000	0.002	-0.000	0.000
757.00	-0.000	-0.000	0.000	0.001	0.001	0.001	-0.000	0.000	-0.000	0.000	-0.000	0.002	-0.000	0.000
758.00	-0.000	-0.000	0.000	0.001	0.001	0.001	-0.000	0.000	-0.000	0.000	-0.000	0.002	-0.000	0.000
759.00	0.000	0.000	0.001	0.001	0.001	0.001	0.000	0.000	0.000	0.000	0.000	0.002	0.000	0.000
760.00	0.001	0.001	0.001	0.002	0.002	0.002	0.001	0.001	0.001	0.001	0.001	0.003	0.001	0.001
761.00	0.000	0.000	0.000	0.001	0.001	0.001	0.000	0.000	0.000	0.000	0.000	0.002	0.000	0.000
762.00	-0.000	-0.000	0.000	0.001	0.001	0.001	-0.000	0.000	-0.000	0.000	-0.000	0.002	-0.000	-0.000
763.00	-0.000	-0.000	0.000	0.001	0.001	0.001	-0.000	0.000	-0.000	0.000	-0.000	0.002	-0.000	-0.000
764.00	-0.000	-0.000	0.000	0.001	0.001	0.001	-0.000	0.000	-0.000	0.000	-0.000	0.002	-0.000	-0.000
765.00	0.000	-0.000	0.000	0.001	0.001	0.001	0.000	0.000	-0.000	0.000	-0.000	0.002	-0.000	-0.000
766.00	-0.000	-0.000	0.000	0.001	0.001	0.001	0.000	0.000	-0.000	0.000	-0.000	0.002	-0.000	-0.000
767.00	-0.000	-0.000	0.000	0.001	0.001	0.001	0.000	0.000	-0.000	0.000	-0.000	0.002	-0.000	-0.000
768.00	0.000	-0.000	0.000	0.001	0.001	0.001	0.000	0.000	-0.000	0.000	-0.000	0.002	0.000	0.000
769.00	0.000	-0.000	0.000	0.001	0.001	0.001	0.000	0.000	-0.000	0.000	-0.000	0.002	-0.000	0.000
770.00	0.000	-0.000	0.000	0.001	0.001	0.001	0.000	0.000	-0.000	0.000	-0.000	0.002	-0.000	0.000
771.00	0.000	-0.000	0.000	0.001	0.001	0.001	-0.000	0.000	-0.000	0.000	0.000	0.002	0.000	0.000
772.00	-0.000	-0.000	0.000	0.001	0.001	0.001	-0.000	0.000	-0.000	0.000	-0.000	0.002	-0.000	0.000
773.00	-0.000	-0.000	0.000	0.001	0.001	0.001	-0.000	0.000	-0.000	0.000	-0.000	0.002	-0.000	0.000
774.00	0.000	-0.000	0.000	0.001	0.001	0.001	0.000	0.000	0.000	0.000	-0.000	0.002	0.000	0.000
775.00	-0.000	-0.000	0.000	0.001	0.001	0.001	0.000	0.000	0.000	0.000	-0.000	0.002	0.000	0.000
776.00	-0.000	-0.000	0.000	0.001	0.001	0.001	0.000	0.000	-0.000	0.000	0.000	0.002	-0.000	0.000
777.00	0.000	-0.000	0.000	0.001	0.001	0.001	0.000	0.000	0.000	0.000	0.000	0.002	0.000	0.000
778.00	0.000	-0.000	0.000	0.001	0.001	0.001	0.000	0.000	0.000	0.000	0.000	0.002	0.000	0.000
779.00	-0.000	-0.000	0.000	0.001	0.001	0.001	0.000	0.000	0.000	0.000	0.000	0.002	0.000	0.000
780.00	-0.000	-0.000	0.000	0.001	0.001	0.001	0.000	0.000	0.000	0.000	-0.000	0.002	0.000	0.000
781.00	-0.000	-0.000	0.000	0.001	0.001	0.001	0.000	0.000	-0.000	0.000	-0.000	0.002	-0.000	0.000
782.00	0.000	-0.000	0.000	0.001	0.001	0.001	0.000	0.000	-0.000	0.000	-0.000	0.002	0.000	0.000
783.00	0.000	-0.000	0.000	0.001	0.001	0.001	0.000	0.000	0.000	0.000	-0.000	0.002	-0.000	0.000
784.00	0.000	-0.000	0.000	0.001	0.001	0.001	0.000	0.000	0.000	0.000	-0.000	0.002	0.000	0.000
785.00	-0.000	-0.000	0.000	0.001	0.001	0.001	0.000	0.000	0.000	0.000	-0.000	0.002	-0.000	0.000
786.00	-0.000	-0.000	0.000	0.001	0.001	0.001	0.000	0.000	0.000	0.000	-0.000	0.002	0.000	0.000
787.00	-0.000	-0.000	0.000	0.001	0.001	0.001	0.000	0.000	0.000	0.000	-0.000	0.002	-0.000	0.000
788.00	-0.000	-0.000	0.000	0.001	0.001	0.001	-0.000	0.000	0.000	0.000	-0.000	0.002	0.000	0.000
789.00	0.000	-0.000	0.000	0.001	0.001	0.001	0.000	0.000	0.000	0.000	0.000	0.002	0.000	0.000
790.00	-0.000	-0.000	0.000	0.001	0.001	0.001	0.000	0.000	0.000	0.000	0.000	0.002	0.000	0.000
791.00	0.000	0.000	0.000	0.001	0.001	0.001	0.000	0.000	0.000	0.000	0.000	0.002	0.000	0.000
792.00	0.000	0.000	0.000	0.001	0.001	0.001	0.000	0.000	0.000	0.000	0.000	0.002	0.000	0.000
793.00	0.000	-0.000	0.001	0.001	0.001	0.001	0.000	0.000	0.000	0.000	0.000	0.002	0.000	0.000
794.00	-0.000	-0.000	0.000	0.001	0.001	0.001	-0.000	0.000	-0.000	0.000	-0.000	0.002	0.000	0.000
795.00	0.000	-0.000	0.000	0.001	0.001	0.001	0.000	0.000	0.000	0.000	-0.000	0.002	0.000	0.000
796.00	0.000	0.000	0.000	0.001	0.001	0.001	0.000	0.000	0.000	0.000	-0.000	0.002	0.000	0.000
797.00	0.000	0.000	0.000	0.001	0.001	0.001	0.000	0.000	0.000	0.000	-0.000	0.002	0.000	0.000
798.00	0.000	0.000	0.000	0.001	0.001	0.001	0.000	0.000	0.000	0.000	0.000	0.002	0.000	0.000
799.00	0.000	-0.000	0.000	0.001	0.001	0.001	0.000	0.000	0.000	0.000	0.000	0.002	0.000	0.000
800.00	-0.000	-0.000	0.000	0.001	0.001	0.001	0.000	0.000	0.000	0.000	0.000	0.002	-0.000	0.000
801.00	-0.000	-0.000	0.000	0.001	0.001	0.001	0.000	0.000	0.000	0.000	0.000	0.002	0.000	0.000
802.00	-0.000	-0.000	0.000	0.001	0.001	0.001	0.000	0.000	0.000	0.000	0.000	0.002	0.000	0.000
803.00	-0.000	-0.000	0.000	0.001	0.000	0.001	0.000	0.000	0.000	0.000	-0.000	0.002	-0.000	0.000
804.00	-0.000	-0.000	0.000	0.001	0.001	0.001	0.000	0.000	0.000	0.000	-0.000	0.002	-0.000	0.000
805.00	-0.000	-0.000	0.000	0.001	0.001	0.001	0.000	0.000	0.000	0.000	-0.000	0.002	-0.000	-0.000
806.00	0.000	-0.000	0.000	0.001	0.001	0.001	0.000	0.000	0.000	0.000	0.000	0.002	0.000	0.000
807.00	0.000	0.000	0.000	0.001	0.001	0.001	0.000	0.000	0.000	0.000	0.000	0.002	0.000	0.000
808.00	0.000	0.000	0.000	0.001	0.001	0.001	0.000	0.000	0.000	0.000	0.000	0.002	0.000	0.000
809.00	-0.000	-0.000	0.000	0.001	0.001	0.001	0.000	0.000	0.000	0.000	-0.000	0.002	-0.000	0.000
810.00	0.000	-0.000	0.000	0.001	0.001	0.001	0.000	0.000	0.000	0.000	0.000	0.002	0.000	0.000
811.00	0.000	-0.000	0.000	0.001	0.001	0.001	0.000	0.000	0.000	0.000	0.000	0.002	0.000	0.000
812.00	-0.000	-0.000	0.000	0.001	0.001	0.001	0.000	0.000	0.000	0.000	0.000	0.002	0.000	0.000
813.00	-0.000	-0.000	0.000	0.001	0.001	0.001	0.000	0.000	0.000	0.000	-0.000	0.002	0.000	0.000
814.00	-0.000	-0.000	0.000	0.001	0.001	0.001	0.000	0.000	0.000	0.000	0.000	0.002	0.000	0.000
815.00	-0.000	0.000	0.000	0.001	0.001	0.001	0.000	0.000	0.000	0.000	0.000	0.002	0.000	0.000
816.00	0.000	0.000	0.001	0.001	0.001	0.001	0.000	0.000	0.000	0.000	0.000	0.002	0.000	0.000
817.00	-0.000	-0.000	0.000	0.001	0.001	0.001	0.000	0.000	0.000	0.000	-0.000	0.002	-0.000	-0.000
818.00	-0.000	0.000	0.000	0.001	0.001	0.001	0.000	0.000	0.000	0.000	-0.000	0.002	0.000	0.000
819.00	0.000	0.000	0.000	0.001	0.001	0.001	0.000	0.000	0.000	0.000	-0.000	0.002	0.000	0.000
820.00	0.000	0.000	0.000	0.001	0.001	0.001	0.000	0.000	0.000	0.000	-0.000	0.002	0.000	0.000
821.00	0.000	-0.000	0.000	0.001	0.001	0.001	0.000	0.000	0.000	0.000	-0.000	0.002	0.000	0.000
822.00	-0.000	-0.000	0.000	0.001	0.001	0.001	0.000	0.000	0.000	0.000	-0.000	0.002	-0.000	0.000
823.00	0.000	-0.000	0.000	0.001	0.001	0.001	0.000	0.000	0.000	0.000	-0.000	0.002	0.000	0.000
824.00	-0.000	-0.000	0.000	0.001	0.001	0.001	0.000	0.000	0.000	0.000	-0.000	0.002	-0.000	0.000
825.00	-0.000	-0.000	0.000	0.001	0.001	0.001	0.000	0.000	-0.000	0.000	-0.000	0.002	0.000	0.000
826.00	0.000	-0.000	0.000	0.001	0.001	0.001	0.000	0.000	-0.000	0.000	-0.000	0.002	0.000	0.000
827.00	0.000	0.000	0.000	0.001	0.001	0.001	0.000	0.000	0.000	0.000	0.000	0.002	0.000	0.000
828.00	0.000	-0.000	0.000	0.001	0.001	0.001	0.000	0.000	-0.000	0.000	0.000	0.002	0.000	0.000
829.00	-0.000	-0.000	0.000	0.001	0.000	0.001	-0.000	0.000	-0.000	0.000	-0.000	0.002	-0.000	-0.000
830.00	-0.000	-0.000	0.000	0.001	0.000	0.001	-0.000	0.000	-0.000	0.000	-0.000	0.002	-0.000	-0.000
831.00	-0.000	-0.000	0.000	0.001	0.001	0.001	-0.000	0.000	-0.000	0.000	-0.000	0.002	-0.000	-0.000
832.00	0.000	-0.000	0.000	0.001	0.001	0.001	-0.000	0.000	-0.000	0.000	-0.000	0.002	-0.000	-0.000
833.00	-0.000	-0.000	0.000	0.001	0.001	0.001	-0.000	0.000	-0.000	0.000	-0.000	0.002	-0.000	-0.000
834.00	0.000	-0.000	0.000	0.001	0.001	0.001	0.000	0.000	0.000	0.000	-0.000	0.002	0.000	0.000
835.00	0.000	-0.000	0.000	0.001	0.001	0.001	0.000	0.000	-0.000	0.000	-0.000	0.002	-0.000	-0.000
836.00	0.000	-0.000	0.000	0.001	0.001	0.001	0.000	0.000	0.000	0.000	0.000	0.002	-0.000	0.000
837.00	0.000	-0.000	0.000	0.001	0.001	0.001	0.000	0.000	0.000	0.000	0.000	0.002	0.000	0.000
838.00	0.000	-0.000	0.000	0.001	0.001	0.001	0.000	0.000	0.000	0.000	-0.000	0.002	-0.000	-0.000
839.00	0.000	-0.000	0.000	0.001	0.001	0.001	0.000	0.000	-0.000	0.000	0.000	0.002	-0.000	-0.000
840.00	0.000	-0.000	0.000	0.001	0.001	0.001	0.000	0.000	-0.000	0.000	-0.000	0.002	-0.000	-0.000
841.00	0.000	-0.000	0.000	0.001	0.000	0.001	-0.000	0.000	-0.000	0.000	-0.000	0.002	-0.000	-0.000
842.00	0.000	-0.000	0.000	0.001	0.000	0.001	-0.000	0.000	-0.000	0.000	-0.000	0.002	-0.000	-0.000
843.00	0.000	-0.000	0.000	0.001	0.000	0.001	-0.000	0.000	-0.000	0.000	-0.000	0.002	-0.000	-0.000
844.00	0.000	-0.000	0.000	0.001	0.001	0.001	0.000	0.000	-0.000	0.000	-0.000	0.002	-0.000	-0.000
845.00	0.000	-0.000	0.000	0.001	0.001	0.001	0.000	0.000	-0.000	0.000	-0.000	0.002	-0.000	-0.000
846.00	0.000	-0.000	0.000	0.001	0.000	0.000	-0.000	0.000	-0.000	0.000	-0.000	0.002	-0.000	-0.000
847.00	0.000	-0.000	0.000	0.001	0.000	0.000	-0.000	0.000	-0.000	0.000	-0.000	0.002	-0.000	-0.000
848.00	0.000	-0.000	0.000	0.001	0.000	0.000	-0.000	0.000	-0.000	0.000	-0.000	0.002	-0.000	-0.000
849.00	0.000	-0.000	0.000	0.001	0.000	0.001	0.000	0.000	-0.000	0.000	-0.000	0.002	-0.000	-0.000
850.00	0.000	-0.000	0.000	0.001	0.000	0.000	0.000	0.000	-0.000	0.000	-0.000	0.002	-0.000	-0.000
