Wavelength nm.	RawData ...	RawData ...	RawData ...	RawData ...	RawData ...	RawData ...	RawData ...	RawData ...	RawData ...	RawData ...	RawData ...	RawData ...	RawData ...
190.00	0.001	0.354	0.163	0.178	0.418	0.144	0.432	0.430	0.232	0.429	0.434	0.461	0.411
191.00	-0.000	0.326	0.154	0.165	0.383	0.136	0.394	0.391	0.219	0.390	0.398	0.420	0.375
192.00	0.001	0.303	0.146	0.155	0.350	0.128	0.364	0.356	0.202	0.354	0.364	0.386	0.343
193.00	0.002	0.274	0.137	0.143	0.314	0.121	0.329	0.320	0.181	0.315	0.326	0.351	0.307
194.00	0.001	0.250	0.130	0.135	0.285	0.115	0.301	0.292	0.161	0.286	0.295	0.323	0.280
195.00	0.001	0.229	0.123	0.127	0.259	0.109	0.276	0.266	0.145	0.259	0.266	0.298	0.254
196.00	0.001	0.212	0.118	0.122	0.238	0.104	0.255	0.246	0.133	0.238	0.243	0.277	0.232
197.00	0.001	0.197	0.114	0.116	0.219	0.101	0.238	0.226	0.126	0.218	0.224	0.260	0.214
198.00	0.001	0.184	0.109	0.111	0.203	0.097	0.222	0.211	0.120	0.201	0.206	0.245	0.197
199.00	0.002	0.174	0.105	0.108	0.188	0.094	0.209	0.197	0.116	0.187	0.192	0.232	0.184
200.00	0.002	0.165	0.103	0.105	0.177	0.093	0.198	0.186	0.113	0.175	0.180	0.221	0.174
201.00	0.001	0.156	0.100	0.102	0.167	0.090	0.187	0.175	0.110	0.164	0.170	0.211	0.164
202.00	0.001	0.149	0.097	0.099	0.158	0.088	0.179	0.166	0.108	0.155	0.161	0.203	0.155
203.00	0.002	0.144	0.095	0.097	0.151	0.087	0.171	0.159	0.106	0.148	0.153	0.196	0.148
204.00	0.002	0.138	0.093	0.095	0.144	0.085	0.164	0.153	0.104	0.141	0.146	0.189	0.141
205.00	0.001	0.133	0.091	0.093	0.138	0.083	0.157	0.146	0.102	0.136	0.139	0.183	0.136
206.00	0.001	0.129	0.089	0.091	0.133	0.082	0.152	0.141	0.100	0.131	0.135	0.177	0.131
207.00	0.001	0.126	0.088	0.089	0.129	0.080	0.147	0.137	0.098	0.127	0.130	0.173	0.127
208.00	0.001	0.122	0.087	0.088	0.125	0.079	0.143	0.133	0.097	0.123	0.126	0.168	0.123
209.00	0.001	0.119	0.084	0.086	0.122	0.077	0.138	0.128	0.094	0.119	0.122	0.163	0.119
210.00	0.001	0.116	0.083	0.084	0.118	0.076	0.134	0.125	0.091	0.116	0.119	0.157	0.116
211.00	0.001	0.113	0.081	0.082	0.115	0.075	0.130	0.121	0.089	0.113	0.116	0.152	0.113
212.00	0.001	0.111	0.079	0.081	0.112	0.073	0.126	0.118	0.087	0.110	0.113	0.147	0.110
213.00	0.001	0.108	0.078	0.079	0.110	0.072	0.123	0.115	0.084	0.107	0.110	0.142	0.107
214.00	0.001	0.106	0.077	0.077	0.107	0.070	0.120	0.113	0.082	0.105	0.107	0.137	0.104
215.00	0.001	0.103	0.075	0.076	0.104	0.069	0.117	0.110	0.080	0.103	0.105	0.133	0.102
216.00	0.001	0.101	0.074	0.075	0.102	0.068	0.114	0.107	0.078	0.100	0.102	0.128	0.100
217.00	0.001	0.099	0.072	0.073	0.100	0.067	0.112	0.105	0.076	0.098	0.100	0.123	0.098
218.00	0.001	0.097	0.071	0.072	0.097	0.065	0.109	0.102	0.073	0.096	0.098	0.119	0.095
219.00	0.001	0.095	0.070	0.071	0.096	0.064	0.107	0.100	0.070	0.094	0.097	0.115	0.094
220.00	0.001	0.094	0.069	0.070	0.094	0.064	0.105	0.099	0.067	0.092	0.095	0.111	0.092
221.00	0.001	0.092	0.068	0.069	0.092	0.063	0.103	0.096	0.064	0.091	0.093	0.107	0.090
222.00	0.001	0.090	0.067	0.068	0.090	0.062	0.101	0.095	0.063	0.089	0.091	0.103	0.089
223.00	0.001	0.089	0.066	0.066	0.089	0.061	0.099	0.093	0.062	0.087	0.090	0.100	0.087
224.00	0.001	0.087	0.065	0.065	0.087	0.060	0.097	0.091	0.060	0.086	0.088	0.096	0.085
225.00	0.001	0.086	0.064	0.064	0.086	0.059	0.095	0.090	0.059	0.084	0.087	0.093	0.084
226.00	0.001	0.084	0.063	0.063	0.084	0.058	0.093	0.088	0.058	0.083	0.085	0.090	0.082
227.00	0.001	0.083	0.062	0.062	0.083	0.057	0.092	0.086	0.057	0.081	0.084	0.087	0.081
228.00	0.001	0.082	0.061	0.061	0.081	0.057	0.090	0.085	0.056	0.080	0.082	0.085	0.079
229.00	0.000	0.080	0.060	0.060	0.080	0.055	0.088	0.083	0.055	0.078	0.081	0.082	0.078
230.00	0.000	0.079	0.059	0.059	0.078	0.055	0.086	0.081	0.054	0.077	0.079	0.080	0.076
231.00	0.000	0.077	0.058	0.058	0.077	0.054	0.085	0.080	0.053	0.076	0.078	0.078	0.075
232.00	0.000	0.076	0.057	0.057	0.076	0.053	0.083	0.078	0.052	0.074	0.076	0.076	0.074
233.00	0.000	0.075	0.056	0.057	0.074	0.052	0.082	0.077	0.052	0.073	0.075	0.074	0.073
234.00	0.000	0.074	0.056	0.056	0.073	0.052	0.081	0.076	0.051	0.072	0.074	0.073	0.072
235.00	0.000	0.072	0.055	0.055	0.072	0.051	0.079	0.074	0.050	0.071	0.073	0.071	0.070
236.00	0.000	0.071	0.054	0.054	0.071	0.050	0.078	0.073	0.049	0.070	0.072	0.070	0.069
237.00	0.000	0.070	0.053	0.053	0.070	0.049	0.076	0.072	0.049	0.069	0.071	0.068	0.068
238.00	0.000	0.069	0.053	0.053	0.069	0.049	0.075	0.071	0.048	0.068	0.070	0.067	0.067
239.00	0.000	0.068	0.052	0.052	0.068	0.048	0.074	0.070	0.047	0.067	0.069	0.066	0.066
240.00	0.000	0.067	0.051	0.051	0.067	0.047	0.073	0.069	0.046	0.066	0.068	0.065	0.065
241.00	0.000	0.067	0.050	0.051	0.066	0.047	0.072	0.068	0.046	0.065	0.067	0.064	0.064
242.00	0.000	0.066	0.050	0.050	0.065	0.046	0.071	0.067	0.045	0.064	0.066	0.063	0.064
243.00	0.000	0.065	0.049	0.049	0.065	0.045	0.070	0.066	0.045	0.063	0.065	0.062	0.063
244.00	0.000	0.064	0.048	0.049	0.064	0.045	0.069	0.065	0.044	0.062	0.065	0.061	0.062
245.00	0.000	0.063	0.048	0.048	0.063	0.044	0.068	0.065	0.044	0.062	0.064	0.060	0.061
246.00	0.000	0.063	0.047	0.048	0.063	0.044	0.067	0.064	0.043	0.061	0.063	0.060	0.061
247.00	0.000	0.062	0.047	0.047	0.062	0.043	0.066	0.063	0.043	0.060	0.063	0.059	0.060
248.00	0.000	0.061	0.046	0.046	0.061	0.043	0.065	0.063	0.042	0.060	0.062	0.058	0.059
249.00	0.000	0.061	0.046	0.046	0.061	0.042	0.065	0.062	0.041	0.059	0.061	0.058	0.059
250.00	0.000	0.060	0.045	0.046	0.060	0.042	0.064	0.061	0.041	0.059	0.061	0.057	0.058
251.00	0.000	0.060	0.045	0.045	0.060	0.042	0.064	0.061	0.041	0.058	0.061	0.057	0.058
252.00	0.000	0.059	0.044	0.045	0.060	0.041	0.063	0.060	0.040	0.058	0.060	0.056	0.057
253.00	0.000	0.059	0.044	0.044	0.059	0.041	0.063	0.060	0.040	0.057	0.060	0.056	0.057
254.00	0.000	0.058	0.044	0.044	0.058	0.040	0.062	0.059	0.039	0.057	0.059	0.055	0.056
255.00	0.000	0.058	0.043	0.044	0.058	0.040	0.062	0.059	0.039	0.056	0.058	0.055	0.056
256.00	-0.000	0.057	0.043	0.043	0.058	0.039	0.061	0.059	0.039	0.056	0.058	0.054	0.055
257.00	-0.000	0.057	0.042	0.043	0.057	0.039	0.061	0.058	0.038	0.055	0.057	0.054	0.055
258.00	-0.000	0.056	0.042	0.043	0.057	0.039	0.060	0.058	0.038	0.055	0.057	0.053	0.054
259.00	0.000	0.056	0.042	0.042	0.056	0.038	0.060	0.057	0.038	0.055	0.057	0.053	0.054
260.00	0.000	0.056	0.041	0.042	0.056	0.038	0.059	0.057	0.038	0.054	0.056	0.052	0.054
261.00	0.001	0.055	0.041	0.042	0.055	0.038	0.059	0.056	0.037	0.054	0.056	0.052	0.053
262.00	0.001	0.055	0.041	0.041	0.055	0.038	0.058	0.056	0.037	0.053	0.055	0.052	0.053
263.00	0.000	0.054	0.040	0.041	0.054	0.037	0.058	0.055	0.036	0.053	0.054	0.051	0.052
264.00	0.000	0.053	0.040	0.040	0.053	0.037	0.057	0.055	0.036	0.052	0.054	0.050	0.052
265.00	0.000	0.053	0.040	0.040	0.053	0.036	0.057	0.054	0.036	0.051	0.053	0.050	0.051
266.00	0.000	0.052	0.039	0.040	0.052	0.036	0.056	0.053	0.035	0.051	0.053	0.049	0.050
267.00	0.000	0.052	0.039	0.039	0.052	0.036	0.055	0.053	0.035	0.050	0.052	0.049	0.050
268.00	0.001	0.051	0.039	0.039	0.051	0.035	0.055	0.052	0.034	0.049	0.052	0.048	0.049
269.00	0.000	0.050	0.038	0.038	0.050	0.035	0.054	0.051	0.034	0.049	0.051	0.047	0.048
270.00	0.000	0.050	0.038	0.038	0.050	0.035	0.053	0.051	0.034	0.048	0.050	0.047	0.048
271.00	0.000	0.049	0.037	0.038	0.049	0.034	0.053	0.050	0.033	0.047	0.049	0.046	0.047
272.00	0.000	0.049	0.037	0.037	0.048	0.034	0.052	0.050	0.033	0.047	0.049	0.045	0.046
273.00	0.000	0.048	0.036	0.037	0.048	0.033	0.051	0.049	0.032	0.046	0.048	0.044	0.045
274.00	0.000	0.047	0.036	0.037	0.047	0.033	0.050	0.048	0.032	0.045	0.047	0.044	0.045
275.00	0.000	0.047	0.035	0.036	0.046	0.033	0.050	0.047	0.032	0.044	0.046	0.043	0.044
276.00	0.000	0.046	0.035	0.035	0.045	0.032	0.049	0.046	0.031	0.044	0.046	0.042	0.043
277.00	0.000	0.045	0.035	0.035	0.044	0.032	0.048	0.046	0.031	0.043	0.045	0.042	0.043
278.00	0.000	0.044	0.034	0.035	0.044	0.031	0.048	0.045	0.030	0.042	0.044	0.041	0.042
279.00	0.000	0.044	0.034	0.035	0.043	0.031	0.047	0.044	0.030	0.041	0.043	0.041	0.041
280.00	0.000	0.043	0.033	0.034	0.042	0.031	0.046	0.043	0.029	0.040	0.043	0.040	0.040
281.00	0.000	0.042	0.033	0.033	0.041	0.030	0.045	0.042	0.029	0.040	0.042	0.039	0.039
282.00	0.000	0.042	0.033	0.033	0.040	0.030	0.044	0.042	0.029	0.039	0.041	0.038	0.039
283.00	0.000	0.041	0.032	0.032	0.040	0.029	0.044	0.041	0.028	0.038	0.040	0.037	0.038
284.00	-0.000	0.040	0.032	0.032	0.039	0.029	0.043	0.040	0.028	0.037	0.039	0.036	0.037
285.00	0.000	0.040	0.031	0.032	0.038	0.028	0.042	0.039	0.027	0.037	0.039	0.036	0.036
286.00	0.000	0.039	0.031	0.031	0.037	0.028	0.041	0.039	0.027	0.036	0.038	0.035	0.035
287.00	0.000	0.038	0.031	0.031	0.036	0.028	0.040	0.038	0.027	0.035	0.037	0.034	0.034
288.00	0.000	0.037	0.030	0.031	0.036	0.027	0.040	0.037	0.026	0.034	0.036	0.034	0.034
289.00	0.000	0.037	0.030	0.030	0.035	0.027	0.039	0.036	0.026	0.034	0.036	0.033	0.033
290.00	0.000	0.036	0.029	0.030	0.034	0.027	0.038	0.035	0.025	0.033	0.035	0.032	0.033
291.00	0.000	0.035	0.029	0.029	0.034	0.026	0.037	0.035	0.025	0.032	0.034	0.032	0.032
292.00	0.000	0.035	0.028	0.029	0.033	0.026	0.037	0.034	0.025	0.032	0.033	0.031	0.031
293.00	0.000	0.034	0.028	0.028	0.032	0.025	0.036	0.033	0.024	0.031	0.032	0.030	0.030
294.00	0.000	0.033	0.028	0.028	0.031	0.025	0.035	0.033	0.024	0.030	0.032	0.030	0.030
295.00	0.000	0.033	0.027	0.027	0.031	0.025	0.034	0.032	0.023	0.029	0.031	0.029	0.029
296.00	0.000	0.032	0.027	0.027	0.030	0.024	0.033	0.031	0.023	0.029	0.030	0.029	0.028
297.00	0.000	0.032	0.027	0.027	0.029	0.024	0.033	0.030	0.023	0.028	0.030	0.028	0.028
298.00	0.000	0.031	0.026	0.026	0.028	0.024	0.032	0.030	0.023	0.028	0.029	0.027	0.027
299.00	0.000	0.031	0.026	0.026	0.028	0.023	0.032	0.029	0.022	0.027	0.029	0.027	0.026
300.00	0.000	0.030	0.025	0.025	0.027	0.023	0.031	0.029	0.022	0.027	0.028	0.026	0.026
301.00	0.000	0.030	0.025	0.025	0.027	0.023	0.030	0.028	0.021	0.026	0.028	0.026	0.025
302.00	0.000	0.029	0.025	0.025	0.026	0.022	0.030	0.028	0.021	0.026	0.027	0.025	0.025
303.00	0.000	0.028	0.024	0.025	0.026	0.022	0.029	0.027	0.021	0.025	0.026	0.025	0.024
304.00	0.000	0.028	0.024	0.024	0.025	0.022	0.029	0.026	0.020	0.024	0.026	0.024	0.024
305.00	0.000	0.028	0.024	0.024	0.025	0.021	0.028	0.026	0.020	0.024	0.025	0.024	0.023
306.00	0.000	0.027	0.024	0.023	0.024	0.021	0.028	0.025	0.020	0.023	0.025	0.023	0.023
307.00	0.000	0.026	0.023	0.023	0.023	0.021	0.027	0.024	0.020	0.023	0.024	0.022	0.022
308.00	0.000	0.026	0.023	0.023	0.023	0.020	0.026	0.024	0.019	0.022	0.024	0.022	0.022
309.00	0.000	0.025	0.022	0.023	0.022	0.020	0.026	0.024	0.019	0.022	0.023	0.022	0.021
310.00	0.000	0.025	0.022	0.022	0.022	0.020	0.025	0.023	0.019	0.022	0.023	0.021	0.021
311.00	0.000	0.025	0.022	0.022	0.022	0.020	0.025	0.023	0.018	0.021	0.022	0.021	0.020
312.00	0.001	0.025	0.022	0.022	0.021	0.019	0.025	0.022	0.018	0.021	0.022	0.021	0.020
313.00	0.000	0.024	0.021	0.021	0.021	0.019	0.024	0.022	0.018	0.020	0.021	0.020	0.020
314.00	0.000	0.024	0.021	0.021	0.020	0.019	0.024	0.021	0.018	0.020	0.021	0.020	0.019
315.00	0.000	0.023	0.021	0.021	0.020	0.018	0.023	0.021	0.017	0.019	0.021	0.020	0.019
316.00	0.000	0.023	0.020	0.020	0.019	0.018	0.023	0.020	0.017	0.019	0.020	0.019	0.019
317.00	0.000	0.023	0.020	0.020	0.019	0.018	0.022	0.020	0.017	0.019	0.020	0.019	0.018
318.00	-0.000	0.022	0.020	0.019	0.018	0.018	0.022	0.019	0.016	0.018	0.019	0.018	0.018
319.00	0.000	0.021	0.020	0.019	0.018	0.017	0.021	0.019	0.016	0.018	0.019	0.018	0.017
320.00	0.000	0.021	0.020	0.019	0.018	0.017	0.021	0.019	0.016	0.018	0.019	0.018	0.017
321.00	0.000	0.021	0.019	0.019	0.018	0.017	0.021	0.019	0.016	0.017	0.018	0.017	0.017
322.00	0.000	0.021	0.019	0.019	0.017	0.017	0.020	0.018	0.016	0.017	0.018	0.017	0.016
323.00	0.000	0.020	0.019	0.019	0.017	0.016	0.020	0.018	0.015	0.017	0.018	0.017	0.016
324.00	0.000	0.020	0.019	0.018	0.017	0.017	0.020	0.018	0.016	0.016	0.017	0.017	0.016
325.00	0.000	0.020	0.019	0.018	0.017	0.016	0.020	0.018	0.015	0.016	0.017	0.016	0.016
326.00	0.001	0.019	0.018	0.018	0.016	0.016	0.019	0.017	0.015	0.016	0.017	0.016	0.015
327.00	0.000	0.019	0.018	0.018	0.016	0.016	0.019	0.017	0.015	0.016	0.017	0.016	0.015
328.00	0.001	0.019	0.018	0.017	0.016	0.016	0.018	0.017	0.015	0.015	0.016	0.015	0.015
329.00	0.001	0.019	0.018	0.017	0.016	0.015	0.018	0.017	0.015	0.015	0.016	0.015	0.015
330.00	0.000	0.019	0.017	0.017	0.015	0.015	0.018	0.016	0.014	0.015	0.016	0.015	0.014
331.00	0.000	0.018	0.017	0.017	0.015	0.015	0.018	0.016	0.014	0.014	0.015	0.015	0.014
332.00	0.000	0.018	0.017	0.016	0.014	0.015	0.017	0.015	0.014	0.014	0.015	0.014	0.014
333.00	0.000	0.018	0.017	0.016	0.014	0.015	0.017	0.015	0.014	0.014	0.015	0.014	0.013
334.00	0.001	0.018	0.017	0.016	0.014	0.014	0.017	0.015	0.014	0.014	0.015	0.014	0.014
335.00	0.000	0.017	0.016	0.016	0.014	0.014	0.016	0.015	0.013	0.013	0.014	0.014	0.013
336.00	0.001	0.017	0.016	0.016	0.013	0.014	0.016	0.014	0.013	0.013	0.014	0.013	0.013
337.00	0.001	0.017	0.016	0.015	0.013	0.014	0.016	0.014	0.013	0.013	0.014	0.013	0.012
338.00	0.001	0.016	0.016	0.015	0.013	0.014	0.016	0.014	0.013	0.013	0.014	0.013	0.012
339.00	0.001	0.016	0.016	0.015	0.013	0.014	0.015	0.014	0.013	0.013	0.013	0.013	0.012
340.00	0.002	0.017	0.017	0.016	0.014	0.015	0.016	0.015	0.014	0.014	0.015	0.014	0.013
341.00	0.001	0.016	0.015	0.015	0.012	0.013	0.015	0.013	0.012	0.012	0.013	0.013	0.012
342.00	0.001	0.015	0.015	0.014	0.012	0.013	0.014	0.012	0.011	0.012	0.012	0.012	0.011
343.00	0.001	0.015	0.015	0.014	0.011	0.012	0.014	0.012	0.011	0.012	0.012	0.012	0.011
344.00	0.001	0.014	0.014	0.014	0.011	0.012	0.014	0.012	0.011	0.011	0.012	0.011	0.011
345.00	0.001	0.014	0.014	0.014	0.011	0.012	0.013	0.012	0.011	0.011	0.012	0.011	0.010
346.00	0.001	0.014	0.014	0.013	0.011	0.012	0.013	0.011	0.011	0.010	0.011	0.011	0.010
347.00	0.001	0.013	0.013	0.013	0.010	0.011	0.013	0.011	0.011	0.010	0.011	0.010	0.010
348.00	0.001	0.013	0.013	0.013	0.010	0.012	0.013	0.011	0.010	0.010	0.011	0.010	0.010
349.00	0.001	0.013	0.013	0.013	0.010	0.011	0.013	0.011	0.011	0.010	0.011	0.010	0.010
350.00	0.001	0.013	0.013	0.013	0.010	0.011	0.012	0.011	0.010	0.010	0.011	0.010	0.009
351.00	0.001	0.013	0.012	0.013	0.010	0.011	0.012	0.011	0.010	0.010	0.011	0.010	0.009
352.00	0.001	0.013	0.013	0.012	0.010	0.011	0.012	0.011	0.010	0.010	0.011	0.010	0.009
353.00	0.001	0.012	0.012	0.012	0.009	0.011	0.012	0.010	0.010	0.009	0.010	0.009	0.009
354.00	0.001	0.012	0.012	0.012	0.009	0.010	0.012	0.010	0.010	0.009	0.010	0.009	0.009
355.00	0.001	0.012	0.012	0.012	0.009	0.010	0.012	0.010	0.009	0.009	0.010	0.009	0.009
356.00	0.001	0.012	0.012	0.012	0.009	0.010	0.011	0.010	0.009	0.009	0.010	0.009	0.008
357.00	0.001	0.012	0.012	0.012	0.009	0.010	0.011	0.009	0.009	0.009	0.009	0.009	0.008
358.00	0.001	0.011	0.012	0.011	0.009	0.010	0.011	0.009	0.009	0.008	0.009	0.009	0.008
359.00	0.001	0.011	0.011	0.011	0.008	0.010	0.011	0.009	0.009	0.008	0.009	0.008	0.008
360.00	0.001	0.011	0.011	0.011	0.008	0.009	0.010	0.009	0.008	0.008	0.009	0.008	0.008
361.00	0.001	0.010	0.011	0.011	0.008	0.009	0.010	0.009	0.008	0.008	0.009	0.008	0.007
362.00	0.001	0.010	0.011	0.010	0.008	0.009	0.010	0.009	0.008	0.008	0.009	0.008	0.007
363.00	0.001	0.010	0.011	0.010	0.008	0.009	0.010	0.008	0.008	0.008	0.008	0.008	0.007
364.00	0.001	0.010	0.010	0.010	0.007	0.009	0.010	0.008	0.008	0.008	0.008	0.008	0.007
365.00	0.001	0.010	0.010	0.010	0.007	0.009	0.010	0.008	0.008	0.007	0.008	0.008	0.007
366.00	0.001	0.010	0.010	0.010	0.007	0.009	0.010	0.008	0.008	0.007	0.008	0.008	0.007
367.00	0.001	0.010	0.010	0.010	0.007	0.008	0.009	0.008	0.008	0.007	0.008	0.007	0.007
368.00	0.001	0.009	0.010	0.009	0.007	0.008	0.009	0.008	0.007	0.007	0.007	0.007	0.006
369.00	0.001	0.009	0.010	0.009	0.007	0.008	0.009	0.007	0.007	0.007	0.007	0.007	0.006
370.00	0.001	0.009	0.010	0.009	0.007	0.008	0.009	0.008	0.007	0.007	0.007	0.007	0.006
371.00	0.001	0.009	0.010	0.009	0.007	0.008	0.009	0.007	0.007	0.007	0.007	0.007	0.006
372.00	0.001	0.009	0.009	0.009	0.006	0.008	0.008	0.007	0.007	0.007	0.007	0.007	0.006
373.00	0.001	0.009	0.009	0.009	0.006	0.008	0.008	0.007	0.007	0.006	0.007	0.007	0.006
374.00	0.001	0.008	0.009	0.009	0.006	0.008	0.008	0.007	0.007	0.006	0.006	0.006	0.005
375.00	0.001	0.008	0.009	0.009	0.006	0.007	0.008	0.007	0.007	0.006	0.007	0.006	0.005
376.00	0.001	0.008	0.009	0.009	0.006	0.007	0.008	0.007	0.006	0.006	0.006	0.006	0.005
377.00	0.001	0.008	0.009	0.009	0.006	0.007	0.008	0.006	0.006	0.006	0.006	0.006	0.005
378.00	0.001	0.008	0.009	0.009	0.006	0.007	0.008	0.007	0.006	0.006	0.006	0.006	0.005
379.00	0.001	0.008	0.008	0.008	0.006	0.007	0.007	0.006	0.006	0.006	0.006	0.006	0.005
380.00	0.001	0.008	0.008	0.008	0.006	0.007	0.007	0.006	0.006	0.005	0.006	0.006	0.005
381.00	0.001	0.008	0.008	0.008	0.006	0.007	0.007	0.006	0.006	0.005	0.006	0.006	0.005
382.00	0.001	0.008	0.008	0.008	0.005	0.007	0.007	0.006	0.006	0.005	0.006	0.005	0.005
383.00	0.001	0.008	0.008	0.008	0.005	0.007	0.007	0.006	0.006	0.005	0.006	0.005	0.005
384.00	0.001	0.007	0.008	0.008	0.005	0.006	0.007	0.006	0.006	0.005	0.006	0.005	0.004
385.00	0.001	0.007	0.008	0.008	0.005	0.006	0.007	0.006	0.006	0.005	0.005	0.005	0.004
386.00	0.001	0.007	0.008	0.008	0.005	0.006	0.007	0.006	0.006	0.005	0.006	0.005	0.004
387.00	0.001	0.007	0.008	0.008	0.005	0.006	0.007	0.006	0.006	0.005	0.005	0.005	0.004
388.00	0.001	0.007	0.008	0.008	0.005	0.006	0.007	0.006	0.005	0.005	0.005	0.005	0.004
389.00	0.001	0.007	0.007	0.007	0.005	0.006	0.006	0.005	0.005	0.005	0.005	0.005	0.004
390.00	0.001	0.007	0.007	0.007	0.005	0.006	0.006	0.005	0.005	0.004	0.005	0.005	0.004
391.00	0.001	0.007	0.007	0.007	0.005	0.006	0.006	0.005	0.005	0.004	0.005	0.004	0.004
392.00	0.001	0.006	0.007	0.007	0.004	0.006	0.006	0.005	0.005	0.004	0.005	0.004	0.004
393.00	0.001	0.006	0.007	0.007	0.004	0.006	0.006	0.005	0.005	0.004	0.005	0.004	0.004
394.00	0.001	0.006	0.007	0.007	0.004	0.006	0.006	0.005	0.005	0.004	0.005	0.004	0.004
395.00	0.001	0.006	0.007	0.007	0.004	0.006	0.006	0.005	0.005	0.004	0.005	0.004	0.004
396.00	0.001	0.006	0.007	0.006	0.004	0.005	0.005	0.004	0.005	0.004	0.004	0.004	0.003
397.00	0.001	0.006	0.007	0.006	0.004	0.005	0.005	0.004	0.005	0.004	0.004	0.004	0.003
398.00	0.001	0.006	0.006	0.006	0.004	0.005	0.005	0.004	0.004	0.004	0.004	0.004	0.003
399.00	0.001	0.005	0.006	0.006	0.004	0.005	0.005	0.004	0.004	0.004	0.004	0.004	0.003
400.00	0.001	0.005	0.006	0.006	0.004	0.005	0.005	0.004	0.004	0.004	0.004	0.004	0.003
401.00	0.001	0.005	0.006	0.006	0.004	0.005	0.005	0.004	0.004	0.003	0.004	0.004	0.003
402.00	0.001	0.005	0.006	0.006	0.004	0.005	0.005	0.004	0.004	0.003	0.004	0.004	0.003
403.00	0.001	0.005	0.006	0.006	0.004	0.005	0.005	0.004	0.004	0.003	0.004	0.004	0.003
404.00	0.001	0.005	0.006	0.006	0.003	0.005	0.005	0.004	0.004	0.003	0.004	0.003	0.003
405.00	0.001	0.005	0.006	0.005	0.003	0.005	0.004	0.004	0.004	0.003	0.003	0.003	0.003
406.00	0.001	0.005	0.006	0.005	0.003	0.005	0.004	0.004	0.004	0.003	0.003	0.003	0.003
407.00	0.001	0.005	0.006	0.005	0.003	0.005	0.004	0.004	0.004	0.003	0.003	0.003	0.003
408.00	0.001	0.005	0.005	0.005	0.003	0.005	0.004	0.003	0.004	0.003	0.003	0.003	0.002
409.00	0.001	0.005	0.005	0.005	0.003	0.004	0.004	0.003	0.004	0.003	0.003	0.003	0.002
410.00	0.001	0.005	0.005	0.005	0.003	0.004	0.004	0.003	0.004	0.003	0.003	0.003	0.002
411.00	0.001	0.005	0.005	0.005	0.003	0.004	0.004	0.003	0.004	0.003	0.003	0.003	0.002
412.00	0.001	0.004	0.005	0.005	0.003	0.004	0.004	0.003	0.003	0.003	0.003	0.003	0.002
413.00	0.001	0.004	0.005	0.005	0.003	0.004	0.004	0.003	0.003	0.003	0.003	0.003	0.002
414.00	0.001	0.004	0.005	0.005	0.003	0.004	0.004	0.003	0.003	0.003	0.003	0.003	0.002
415.00	0.001	0.004	0.005	0.005	0.003	0.004	0.004	0.003	0.003	0.003	0.003	0.003	0.002
416.00	0.001	0.004	0.005	0.005	0.003	0.004	0.004	0.003	0.004	0.003	0.003	0.003	0.002
417.00	0.001	0.004	0.005	0.005	0.003	0.004	0.004	0.003	0.003	0.002	0.003	0.003	0.002
418.00	0.001	0.004	0.005	0.005	0.003	0.004	0.004	0.003	0.003	0.002	0.003	0.002	0.002
419.00	0.001	0.004	0.005	0.005	0.003	0.004	0.004	0.003	0.003	0.002	0.003	0.002	0.002
420.00	0.001	0.004	0.005	0.005	0.003	0.004	0.004	0.003	0.003	0.002	0.003	0.002	0.002
421.00	0.001	0.004	0.005	0.005	0.002	0.004	0.004	0.003	0.003	0.002	0.003	0.002	0.002
422.00	0.001	0.004	0.005	0.004	0.002	0.004	0.004	0.003	0.003	0.002	0.002	0.002	0.002
423.00	0.001	0.004	0.005	0.004	0.002	0.004	0.003	0.003	0.003	0.002	0.002	0.002	0.002
424.00	0.001	0.004	0.005	0.004	0.002	0.003	0.003	0.003	0.003	0.002	0.002	0.002	0.001
425.00	0.001	0.004	0.004	0.004	0.002	0.003	0.003	0.002	0.003	0.002	0.002	0.002	0.001
426.00	0.001	0.004	0.004	0.004	0.002	0.003	0.003	0.002	0.003	0.002	0.002	0.002	0.001
427.00	0.001	0.004	0.004	0.004	0.002	0.004	0.003	0.002	0.003	0.002	0.002	0.002	0.001
428.00	0.001	0.004	0.004	0.004	0.002	0.003	0.003	0.002	0.003	0.002	0.002	0.002	0.001
429.00	0.000	0.003	0.004	0.004	0.002	0.003	0.003	0.002	0.002	0.002	0.002	0.002	0.001
430.00	0.001	0.003	0.004	0.004	0.002	0.003	0.003	0.002	0.002	0.002	0.002	0.002	0.001
431.00	0.001	0.003	0.004	0.004	0.002	0.003	0.003	0.002	0.002	0.002	0.002	0.002	0.001
432.00	0.001	0.003	0.004	0.004	0.002	0.003	0.003	0.002	0.002	0.002	0.002	0.002	0.001
433.00	0.001	0.003	0.004	0.004	0.002	0.003	0.003	0.002	0.002	0.002	0.002	0.002	0.001
434.00	0.001	0.003	0.004	0.004	0.002	0.003	0.003	0.002	0.002	0.002	0.002	0.002	0.001
435.00	0.001	0.003	0.004	0.004	0.002	0.003	0.003	0.002	0.002	0.001	0.002	0.002	0.001
436.00	0.001	0.003	0.004	0.004	0.002	0.003	0.003	0.002	0.002	0.001	0.002	0.002	0.001
437.00	0.001	0.003	0.004	0.004	0.002	0.003	0.003	0.002	0.002	0.001	0.002	0.002	0.001
438.00	0.001	0.003	0.004	0.004	0.001	0.003	0.003	0.002	0.002	0.001	0.002	0.002	0.001
439.00	0.001	0.003	0.004	0.003	0.001	0.003	0.002	0.002	0.002	0.001	0.002	0.002	0.001
440.00	0.000	0.003	0.004	0.003	0.001	0.003	0.002	0.002	0.002	0.001	0.002	0.001	0.001
441.00	0.001	0.003	0.004	0.003	0.001	0.003	0.002	0.002	0.002	0.001	0.001	0.001	0.001
442.00	0.000	0.003	0.003	0.003	0.001	0.003	0.002	0.002	0.002	0.001	0.001	0.001	0.001
443.00	0.000	0.002	0.003	0.003	0.001	0.003	0.002	0.002	0.002	0.001	0.001	0.001	0.001
444.00	0.000	0.002	0.003	0.003	0.001	0.003	0.002	0.002	0.002	0.001	0.001	0.001	0.001
445.00	0.000	0.002	0.003	0.003	0.001	0.003	0.002	0.002	0.002	0.001	0.001	0.001	0.001
446.00	0.001	0.003	0.003	0.003	0.001	0.003	0.002	0.002	0.002	0.001	0.001	0.001	0.001
447.00	0.001	0.003	0.003	0.003	0.001	0.003	0.002	0.002	0.002	0.001	0.001	0.001	0.001
448.00	0.000	0.002	0.003	0.003	0.001	0.002	0.002	0.001	0.002	0.001	0.001	0.001	0.001
449.00	0.001	0.002	0.003	0.003	0.001	0.002	0.002	0.001	0.002	0.001	0.001	0.001	0.001
450.00	0.001	0.002	0.003	0.003	0.001	0.002	0.002	0.001	0.002	0.001	0.001	0.001	0.001
451.00	0.001	0.002	0.003	0.003	0.001	0.002	0.002	0.001	0.002	0.001	0.001	0.001	0.000
452.00	0.001	0.002	0.003	0.003	0.001	0.002	0.002	0.001	0.002	0.001	0.001	0.001	0.000
453.00	0.001	0.002	0.003	0.003	0.001	0.002	0.002	0.001	0.001	0.001	0.001	0.001	0.000
454.00	0.001	0.002	0.003	0.003	0.001	0.002	0.002	0.001	0.002	0.001	0.001	0.001	0.001
455.00	0.001	0.002	0.003	0.003	0.001	0.002	0.002	0.001	0.002	0.001	0.001	0.001	0.000
456.00	0.001	0.002	0.003	0.003	0.001	0.002	0.002	0.001	0.002	0.001	0.001	0.001	0.000
457.00	0.001	0.002	0.003	0.003	0.001	0.002	0.002	0.001	0.002	0.001	0.001	0.001	0.000
458.00	0.001	0.002	0.003	0.003	0.001	0.002	0.002	0.001	0.002	0.001	0.001	0.001	0.000
459.00	0.001	0.002	0.003	0.003	0.001	0.002	0.002	0.001	0.001	0.001	0.001	0.001	0.000
460.00	0.001	0.002	0.003	0.003	0.001	0.002	0.002	0.001	0.001	0.001	0.001	0.001	0.000
461.00	0.001	0.002	0.003	0.003	0.001	0.002	0.002	0.001	0.002	0.001	0.001	0.001	0.000
462.00	0.001	0.002	0.003	0.003	0.001	0.002	0.002	0.001	0.002	0.001	0.001	0.001	0.000
463.00	0.001	0.002	0.003	0.003	0.001	0.002	0.002	0.001	0.001	0.001	0.001	0.001	0.000
464.00	0.001	0.002	0.003	0.003	0.001	0.002	0.002	0.001	0.001	0.001	0.001	0.001	0.000
465.00	0.001	0.002	0.003	0.003	0.001	0.002	0.002	0.001	0.001	0.001	0.001	0.001	0.000
466.00	0.001	0.002	0.003	0.003	0.001	0.002	0.002	0.001	0.001	0.001	0.001	0.001	0.000
467.00	0.001	0.002	0.003	0.003	0.001	0.002	0.002	0.001	0.001	0.001	0.001	0.001	0.000
468.00	0.001	0.002	0.003	0.003	0.001	0.002	0.002	0.001	0.001	0.001	0.001	0.001	0.000
469.00	0.001	0.002	0.003	0.003	0.001	0.002	0.002	0.001	0.001	0.001	0.001	0.001	0.000
470.00	0.001	0.002	0.003	0.003	0.001	0.002	0.002	0.001	0.001	0.001	0.001	0.001	0.000
471.00	0.001	0.002	0.003	0.003	0.001	0.002	0.002	0.001	0.001	0.001	0.001	0.001	0.000
472.00	0.001	0.002	0.003	0.003	0.001	0.002	0.002	0.001	0.001	0.001	0.001	0.001	0.000
473.00	0.001	0.002	0.003	0.003	0.001	0.002	0.002	0.001	0.001	0.001	0.001	0.001	0.000
474.00	0.001	0.002	0.002	0.002	0.001	0.002	0.002	0.001	0.001	0.000	0.001	0.001	0.000
475.00	0.001	0.002	0.002	0.002	0.001	0.002	0.001	0.001	0.001	0.000	0.001	0.001	-0.000
476.00	0.001	0.002	0.002	0.002	0.001	0.002	0.001	0.001	0.001	0.000	0.001	0.001	-0.000
477.00	0.001	0.002	0.002	0.002	0.001	0.002	0.001	0.001	0.001	0.000	0.001	0.001	0.000
478.00	0.001	0.001	0.002	0.002	0.000	0.002	0.001	0.001	0.001	0.000	0.001	0.000	-0.000
479.00	0.001	0.001	0.002	0.002	0.000	0.002	0.001	0.001	0.001	0.000	0.001	0.001	-0.000
480.00	0.001	0.001	0.002	0.002	0.000	0.002	0.001	0.001	0.001	0.000	0.001	0.001	0.000
481.00	0.001	0.001	0.002	0.002	0.000	0.002	0.001	0.001	0.001	0.000	0.001	0.000	-0.000
482.00	0.001	0.001	0.002	0.002	0.000	0.002	0.001	0.001	0.001	0.000	0.000	0.000	-0.000
483.00	0.001	0.001	0.002	0.002	0.000	0.002	0.001	0.001	0.001	0.000	0.000	0.000	-0.000
484.00	0.000	0.001	0.002	0.002	0.000	0.002	0.001	0.001	0.001	0.000	0.000	0.001	-0.000
485.00	0.001	0.001	0.002	0.002	0.000	0.002	0.001	0.001	0.001	0.000	0.000	0.001	-0.000
486.00	0.001	0.001	0.002	0.002	0.000	0.002	0.001	0.000	0.001	0.000	0.000	0.000	-0.000
487.00	0.001	0.001	0.002	0.002	0.000	0.002	0.001	0.000	0.001	0.000	0.000	0.000	-0.000
488.00	0.001	0.001	0.002	0.002	0.000	0.001	0.001	0.000	0.001	0.000	0.000	0.000	-0.000
489.00	0.000	0.001	0.002	0.002	0.000	0.001	0.001	0.000	0.001	0.000	0.000	0.000	-0.000
490.00	0.000	0.001	0.002	0.002	0.000	0.001	0.001	0.000	0.001	0.000	0.000	0.000	-0.000
491.00	0.000	0.001	0.002	0.002	0.000	0.001	0.001	0.000	0.001	0.000	0.000	0.000	-0.000
492.00	0.000	0.001	0.002	0.002	0.000	0.002	0.001	0.000	0.001	0.000	0.000	0.000	-0.000
493.00	0.000	0.001	0.002	0.002	0.000	0.001	0.001	0.000	0.000	0.000	0.000	0.000	-0.000
494.00	0.000	0.001	0.002	0.002	0.000	0.001	0.001	0.000	0.000	0.000	0.000	0.000	-0.000
495.00	0.001	0.001	0.002	0.002	0.000	0.001	0.001	0.000	0.001	0.000	0.000	0.000	-0.000
496.00	0.001	0.001	0.002	0.002	0.000	0.001	0.001	0.000	0.001	0.000	0.000	0.000	-0.000
497.00	0.001	0.001	0.002	0.002	0.000	0.001	0.001	0.000	0.000	-0.000	0.000	0.000	-0.000
498.00	0.001	0.001	0.002	0.002	0.000	0.001	0.001	0.000	0.000	0.000	0.000	0.000	-0.000
499.00	0.001	0.001	0.002	0.002	0.000	0.001	0.001	0.000	0.000	-0.000	0.000	0.000	-0.000
500.00	0.001	0.001	0.002	0.002	0.000	0.001	0.001	0.000	0.000	-0.000	0.000	0.000	-0.000
501.00	0.001	0.001	0.002	0.002	0.000	0.001	0.001	0.000	0.000	-0.000	0.000	0.000	-0.000
502.00	0.001	0.001	0.002	0.002	0.000	0.001	0.001	0.000	0.001	-0.000	0.000	0.000	-0.000
503.00	0.001	0.001	0.002	0.002	0.000	0.001	0.001	0.000	0.000	-0.000	0.000	0.000	-0.001
504.00	0.001	0.001	0.002	0.002	0.000	0.001	0.001	0.000	0.000	-0.000	0.000	0.000	-0.001
505.00	0.001	0.001	0.002	0.002	0.000	0.001	0.001	0.000	0.000	-0.000	0.000	0.000	-0.001
506.00	0.001	0.001	0.002	0.002	0.000	0.001	0.001	0.000	0.000	-0.000	0.000	0.000	-0.001
507.00	0.001	0.001	0.002	0.002	0.000	0.001	0.001	0.000	0.000	-0.000	0.000	0.000	-0.000
508.00	0.001	0.001	0.002	0.002	0.000	0.001	0.001	0.000	0.000	-0.000	0.000	0.000	-0.001
509.00	0.001	0.001	0.001	0.002	0.000	0.001	0.001	0.000	0.000	-0.000	0.000	-0.000	-0.001
510.00	0.001	0.001	0.001	0.002	0.000	0.001	0.001	0.000	0.000	-0.000	0.000	-0.000	-0.001
511.00	0.001	0.001	0.001	0.002	0.000	0.001	0.001	0.000	0.000	-0.000	0.000	-0.000	-0.001
512.00	0.001	0.001	0.002	0.002	0.000	0.001	0.001	0.000	0.000	-0.000	0.000	0.000	-0.001
513.00	0.001	0.001	0.001	0.002	0.000	0.001	0.001	0.000	0.000	-0.000	0.000	0.000	-0.001
514.00	0.001	0.001	0.001	0.002	0.000	0.001	0.001	0.000	0.000	-0.000	0.000	0.000	-0.001
515.00	0.001	0.001	0.001	0.002	0.000	0.001	0.001	0.000	0.000	-0.000	0.000	0.000	-0.001
516.00	0.001	0.001	0.002	0.002	0.000	0.001	0.001	0.000	0.000	-0.000	0.000	-0.000	-0.001
517.00	0.001	0.001	0.001	0.002	0.000	0.001	0.001	0.000	0.000	-0.000	0.000	-0.000	-0.001
518.00	0.001	0.001	0.001	0.002	0.000	0.001	0.001	0.000	0.000	-0.000	0.000	-0.000	-0.001
519.00	0.001	0.001	0.001	0.002	0.000	0.001	0.001	0.000	0.000	-0.000	-0.000	-0.000	-0.001
520.00	0.001	0.001	0.001	0.002	0.000	0.001	0.001	0.000	0.000	-0.000	0.000	-0.000	-0.001
521.00	0.001	0.001	0.001	0.002	0.000	0.001	0.001	0.000	0.000	-0.000	0.000	-0.000	-0.001
522.00	0.001	0.001	0.001	0.001	0.000	0.001	0.001	0.000	0.000	-0.000	-0.000	-0.000	-0.001
523.00	0.001	0.001	0.001	0.001	-0.000	0.001	0.000	0.000	0.000	-0.000	0.000	-0.000	-0.001
524.00	0.001	0.001	0.001	0.001	-0.000	0.001	0.001	0.000	0.000	-0.000	0.000	-0.000	-0.001
525.00	0.001	0.001	0.001	0.001	0.000	0.001	0.001	0.000	0.000	-0.000	0.000	-0.000	-0.001
526.00	0.001	0.001	0.001	0.001	0.000	0.001	0.001	0.000	0.000	-0.000	-0.000	-0.000	-0.001
527.00	0.001	0.000	0.001	0.001	-0.000	0.001	0.000	0.000	0.000	-0.000	-0.000	-0.000	-0.001
528.00	0.000	0.000	0.001	0.001	-0.000	0.001	0.000	0.000	0.000	-0.000	-0.000	-0.000	-0.001
529.00	0.000	0.000	0.001	0.001	-0.000	0.001	0.000	-0.000	0.000	-0.000	-0.000	-0.000	-0.001
530.00	0.000	0.000	0.001	0.001	-0.000	0.001	0.000	-0.000	-0.000	-0.000	-0.000	-0.000	-0.001
531.00	0.000	0.000	0.001	0.001	-0.000	0.001	0.000	-0.000	-0.000	-0.000	-0.000	-0.000	-0.001
532.00	0.000	0.000	0.001	0.001	-0.000	0.001	0.000	-0.000	-0.000	-0.001	-0.000	-0.000	-0.001
533.00	0.000	0.000	0.001	0.001	-0.000	0.001	0.000	-0.000	-0.000	-0.000	-0.000	-0.000	-0.001
534.00	0.001	0.000	0.001	0.001	-0.000	0.001	0.000	-0.000	0.000	-0.000	-0.000	-0.000	-0.001
535.00	0.001	0.001	0.001	0.001	0.000	0.001	0.001	0.000	0.000	-0.000	0.000	0.000	-0.000
536.00	0.002	0.001	0.002	0.002	0.001	0.002	0.001	0.001	0.001	0.001	0.001	0.001	0.000
537.00	0.001	0.000	0.001	0.001	0.000	0.001	0.001	-0.000	0.000	-0.000	-0.000	-0.000	-0.001
538.00	0.000	0.000	0.001	0.001	-0.000	0.001	0.000	-0.000	-0.000	-0.000	-0.000	-0.000	-0.001
539.00	0.000	0.000	0.001	0.001	-0.000	0.001	0.000	-0.000	-0.000	-0.000	-0.000	-0.000	-0.001
540.00	0.000	0.000	0.001	0.001	-0.000	0.001	0.000	-0.000	-0.000	-0.000	-0.000	-0.000	-0.001
541.00	0.000	0.000	0.001	0.001	-0.000	0.001	0.000	-0.000	-0.000	-0.000	-0.000	-0.000	-0.001
542.00	0.000	0.000	0.001	0.001	-0.000	0.001	0.000	-0.000	-0.000	-0.001	-0.000	-0.000	-0.001
543.00	0.000	0.000	0.001	0.001	-0.000	0.001	0.000	-0.000	-0.000	-0.001	-0.000	-0.000	-0.001
544.00	0.000	0.000	0.001	0.001	-0.000	0.001	0.000	-0.000	-0.000	-0.001	-0.000	-0.000	-0.001
545.00	0.000	0.000	0.001	0.001	-0.000	0.001	0.000	-0.000	-0.000	-0.001	-0.000	-0.000	-0.001
546.00	0.000	0.000	0.001	0.001	-0.000	0.001	0.000	-0.000	-0.000	-0.001	-0.000	-0.000	-0.001
547.00	0.000	0.000	0.001	0.001	-0.000	0.001	0.000	-0.000	-0.000	-0.001	-0.000	-0.000	-0.001
548.00	0.000	0.000	0.001	0.001	-0.000	0.001	0.000	-0.000	-0.000	-0.001	-0.000	-0.000	-0.001
549.00	0.000	0.000	0.001	0.001	-0.000	0.001	0.000	-0.000	-0.000	-0.001	-0.000	-0.000	-0.001
550.00	0.000	0.000	0.001	0.001	-0.000	0.001	0.000	-0.000	-0.000	-0.001	-0.000	-0.000	-0.001
551.00	0.000	0.000	0.001	0.001	-0.000	0.001	0.000	-0.000	-0.000	-0.001	-0.000	-0.000	-0.001
552.00	0.000	0.000	0.001	0.001	-0.000	0.001	0.000	-0.000	-0.000	-0.001	-0.000	-0.000	-0.001
553.00	0.000	0.000	0.001	0.001	-0.000	0.001	0.000	-0.000	-0.000	-0.001	-0.000	-0.000	-0.001
554.00	0.000	0.000	0.001	0.001	-0.000	0.001	0.000	-0.000	-0.000	-0.001	-0.000	-0.000	-0.001
555.00	0.000	0.000	0.001	0.001	-0.000	0.001	0.000	-0.000	-0.000	-0.001	-0.000	-0.000	-0.001
556.00	0.000	0.000	0.001	0.001	-0.000	0.001	0.000	-0.000	-0.000	-0.001	-0.000	-0.000	-0.001
557.00	0.000	0.000	0.001	0.001	-0.000	0.001	0.000	-0.000	-0.000	-0.001	-0.000	-0.000	-0.001
558.00	0.000	0.000	0.001	0.001	-0.000	0.001	0.000	-0.000	-0.000	-0.001	-0.000	-0.000	-0.001
559.00	0.000	0.000	0.001	0.001	-0.000	0.001	0.000	-0.000	-0.000	-0.001	-0.000	-0.000	-0.001
560.00	0.000	0.000	0.001	0.001	-0.000	0.001	0.000	-0.000	-0.000	-0.001	-0.000	-0.000	-0.001
561.00	0.001	0.000	0.001	0.001	0.000	0.001	0.000	-0.000	-0.000	-0.001	-0.000	-0.000	-0.001
562.00	0.000	0.000	0.001	0.001	-0.000	0.001	0.000	-0.000	-0.000	-0.001	-0.000	-0.000	-0.001
563.00	0.000	0.000	0.001	0.001	-0.000	0.000	0.000	-0.000	-0.000	-0.001	-0.000	-0.000	-0.001
564.00	0.001	0.000	0.001	0.001	0.000	0.001	0.000	-0.000	-0.000	-0.001	-0.000	-0.000	-0.001
565.00	0.001	0.000	0.001	0.001	0.000	0.001	0.000	-0.000	-0.000	-0.001	-0.000	-0.000	-0.001
566.00	0.001	0.000	0.001	0.001	0.000	0.001	0.000	-0.000	-0.000	-0.001	-0.000	-0.000	-0.001
567.00	0.001	0.000	0.001	0.001	0.000	0.001	0.000	-0.000	-0.000	-0.001	-0.000	-0.000	-0.001
568.00	0.001	0.000	0.001	0.001	0.000	0.001	0.000	-0.000	-0.000	-0.001	-0.000	-0.000	-0.001
569.00	0.001	0.000	0.001	0.001	0.000	0.001	0.000	-0.000	-0.000	-0.001	-0.000	-0.000	-0.001
570.00	0.001	0.000	0.001	0.001	0.000	0.001	0.000	-0.000	-0.000	-0.001	-0.000	-0.000	-0.001
571.00	0.001	0.000	0.001	0.001	0.000	0.001	0.000	-0.000	-0.000	-0.001	-0.000	-0.000	-0.001
572.00	0.001	0.000	0.001	0.001	0.000	0.001	0.000	-0.000	-0.000	-0.001	-0.000	-0.000	-0.001
573.00	0.001	0.000	0.001	0.001	0.000	0.001	0.000	-0.000	-0.000	-0.001	-0.000	-0.000	-0.001
574.00	0.001	0.000	0.001	0.001	0.000	0.001	0.000	-0.000	0.000	-0.001	-0.000	-0.000	-0.001
575.00	0.001	0.000	0.001	0.001	0.000	0.001	0.000	-0.000	-0.000	-0.001	-0.000	-0.000	-0.001
576.00	0.001	0.000	0.001	0.001	0.000	0.001	0.000	-0.000	0.000	-0.001	-0.000	-0.000	-0.001
577.00	0.001	0.000	0.001	0.001	0.000	0.001	0.000	-0.000	-0.000	-0.001	-0.000	-0.000	-0.001
578.00	0.001	0.000	0.001	0.001	0.000	0.001	0.000	-0.000	0.000	-0.001	-0.000	-0.000	-0.001
579.00	0.001	0.000	0.001	0.001	0.000	0.001	0.000	-0.000	0.000	-0.001	-0.000	-0.000	-0.001
580.00	0.001	0.000	0.001	0.001	0.000	0.001	0.000	-0.000	0.000	-0.001	-0.000	-0.000	-0.001
581.00	0.001	0.000	0.001	0.001	0.000	0.001	0.000	-0.000	0.000	-0.000	-0.000	-0.000	-0.001
582.00	0.001	0.000	0.001	0.001	0.000	0.001	0.000	-0.000	0.000	-0.001	-0.000	-0.000	-0.001
583.00	0.001	0.000	0.001	0.001	0.000	0.001	0.000	-0.000	0.000	-0.000	-0.000	-0.000	-0.001
584.00	0.001	0.000	0.001	0.001	0.000	0.001	0.000	-0.000	-0.000	-0.001	-0.000	-0.000	-0.001
585.00	0.001	0.000	0.001	0.001	0.000	0.001	0.000	-0.000	0.000	-0.001	-0.000	-0.000	-0.001
586.00	0.001	0.000	0.001	0.001	0.000	0.001	0.000	-0.000	-0.000	-0.001	-0.000	-0.000	-0.001
587.00	0.001	0.000	0.001	0.001	0.000	0.001	0.000	-0.000	-0.000	-0.001	-0.000	-0.000	-0.001
588.00	0.001	0.000	0.001	0.001	0.000	0.001	0.000	-0.000	-0.000	-0.001	-0.000	-0.000	-0.001
589.00	0.001	0.000	0.001	0.001	0.000	0.001	0.000	-0.000	-0.000	-0.001	-0.000	-0.000	-0.001
590.00	0.001	0.000	0.001	0.001	0.000	0.000	0.000	-0.000	-0.000	-0.001	-0.000	-0.000	-0.001
591.00	0.001	0.000	0.001	0.001	0.000	0.000	0.000	-0.000	-0.000	-0.001	-0.000	-0.000	-0.001
592.00	0.001	0.000	0.001	0.001	0.000	0.000	0.000	-0.000	-0.000	-0.001	-0.000	-0.000	-0.001
593.00	0.001	0.000	0.001	0.001	0.000	0.001	0.000	-0.000	-0.000	-0.001	-0.000	-0.000	-0.001
594.00	0.001	0.000	0.001	0.001	0.000	0.001	0.000	-0.000	-0.000	-0.001	-0.000	-0.000	-0.001
595.00	0.001	0.000	0.001	0.001	0.000	0.000	0.000	-0.000	-0.000	-0.001	-0.000	-0.000	-0.001
596.00	0.001	0.000	0.001	0.001	0.000	0.001	0.000	-0.000	-0.000	-0.001	-0.000	-0.000	-0.001
597.00	0.001	0.000	0.001	0.001	-0.000	0.000	0.000	-0.000	-0.000	-0.001	-0.000	-0.000	-0.001
598.00	0.001	-0.000	0.001	0.001	-0.000	0.000	0.000	-0.000	-0.000	-0.001	-0.000	-0.000	-0.001
599.00	0.001	-0.000	0.001	0.001	-0.000	0.000	0.000	-0.000	-0.000	-0.001	-0.001	-0.001	-0.001
600.00	0.000	-0.000	0.000	0.001	-0.000	0.000	0.000	-0.000	-0.000	-0.001	-0.001	-0.001	-0.001
601.00	0.001	0.000	0.001	0.001	-0.000	0.000	0.000	-0.000	-0.000	-0.001	-0.000	-0.000	-0.001
602.00	0.001	0.000	0.001	0.001	-0.000	0.000	0.000	-0.000	-0.000	-0.001	-0.000	-0.000	-0.001
603.00	0.001	0.000	0.001	0.001	-0.000	0.000	0.000	-0.000	-0.000	-0.001	-0.000	-0.000	-0.001
604.00	0.001	0.000	0.001	0.001	-0.000	0.000	0.000	-0.000	-0.000	-0.001	-0.000	-0.000	-0.001
605.00	0.000	0.000	0.000	0.001	-0.000	0.000	0.000	-0.000	-0.000	-0.001	-0.001	-0.000	-0.001
606.00	0.001	-0.000	0.001	0.001	-0.000	0.000	0.000	-0.000	-0.000	-0.001	-0.001	-0.000	-0.001
607.00	0.001	-0.000	0.001	0.001	-0.000	0.000	0.000	-0.000	-0.000	-0.001	-0.001	-0.000	-0.001
608.00	0.000	-0.000	0.000	0.001	-0.000	0.000	-0.000	-0.000	-0.000	-0.001	-0.001	-0.001	-0.001
609.00	0.000	-0.000	0.000	0.001	-0.000	0.000	-0.000	-0.000	-0.000	-0.001	-0.001	-0.001	-0.001
610.00	0.000	-0.000	0.000	0.001	-0.000	0.000	-0.000	-0.000	-0.000	-0.001	-0.001	-0.001	-0.001
611.00	0.000	-0.000	0.000	0.001	-0.000	0.000	-0.000	-0.001	-0.000	-0.001	-0.001	-0.001	-0.001
612.00	0.000	-0.000	0.000	0.001	-0.000	0.000	-0.000	-0.000	-0.000	-0.001	-0.001	-0.001	-0.001
613.00	0.000	-0.000	0.000	0.001	-0.000	0.000	-0.000	-0.000	-0.000	-0.001	-0.001	-0.001	-0.001
614.00	0.000	-0.000	0.000	0.001	-0.000	0.000	-0.000	-0.001	-0.000	-0.001	-0.001	-0.001	-0.001
615.00	0.000	-0.000	0.000	0.001	-0.001	0.000	-0.000	-0.001	-0.000	-0.001	-0.001	-0.001	-0.001
616.00	0.000	-0.000	0.000	0.001	-0.001	0.000	-0.000	-0.001	-0.000	-0.001	-0.001	-0.001	-0.001
617.00	0.000	-0.000	0.000	0.001	-0.001	0.000	-0.000	-0.001	-0.000	-0.001	-0.001	-0.001	-0.001
618.00	0.000	-0.000	0.000	0.001	-0.001	0.000	-0.000	-0.001	-0.000	-0.001	-0.001	-0.001	-0.001
619.00	0.000	-0.000	0.000	0.001	-0.001	0.000	-0.000	-0.001	-0.000	-0.001	-0.001	-0.001	-0.001
620.00	0.000	-0.000	0.000	0.001	-0.001	0.000	-0.000	-0.001	-0.000	-0.001	-0.001	-0.001	-0.001
621.00	0.000	-0.000	0.000	0.001	-0.001	0.000	-0.000	-0.001	-0.000	-0.001	-0.001	-0.001	-0.001
622.00	0.000	-0.000	0.000	0.001	-0.001	0.000	-0.000	-0.001	-0.000	-0.001	-0.001	-0.001	-0.001
623.00	0.000	-0.000	0.000	0.001	-0.001	0.000	-0.000	-0.001	-0.000	-0.001	-0.001	-0.001	-0.001
624.00	0.000	-0.000	0.000	0.001	-0.001	0.000	-0.000	-0.001	-0.000	-0.001	-0.001	-0.001	-0.001
625.00	0.000	-0.000	0.000	0.001	-0.001	0.000	-0.000	-0.001	-0.000	-0.001	-0.001	-0.001	-0.001
626.00	0.000	-0.000	0.000	0.000	-0.001	0.000	-0.000	-0.001	-0.000	-0.001	-0.001	-0.001	-0.001
627.00	0.000	-0.000	0.000	0.001	-0.001	0.000	-0.000	-0.001	-0.000	-0.001	-0.001	-0.001	-0.001
628.00	0.000	-0.000	0.000	0.001	-0.001	0.000	-0.000	-0.001	-0.000	-0.001	-0.001	-0.001	-0.001
629.00	0.000	-0.000	0.000	0.001	-0.001	0.000	-0.000	-0.001	-0.000	-0.001	-0.001	-0.001	-0.001
630.00	0.000	-0.000	0.000	0.000	-0.001	0.000	-0.000	-0.001	-0.000	-0.001	-0.001	-0.001	-0.001
631.00	0.000	-0.000	0.000	0.000	-0.001	0.000	-0.000	-0.001	-0.000	-0.001	-0.001	-0.001	-0.001
632.00	0.000	-0.000	0.000	0.001	-0.001	0.000	-0.000	-0.001	-0.000	-0.001	-0.001	-0.001	-0.001
633.00	0.000	-0.000	0.000	0.000	-0.001	0.000	-0.000	-0.001	-0.000	-0.001	-0.001	-0.001	-0.001
634.00	0.000	-0.000	0.000	0.000	-0.001	0.000	-0.000	-0.001	-0.000	-0.001	-0.001	-0.001	-0.001
635.00	0.000	-0.000	0.000	0.000	-0.001	0.000	-0.000	-0.001	-0.001	-0.001	-0.001	-0.001	-0.001
636.00	0.000	-0.000	0.000	0.000	-0.001	0.000	-0.000	-0.001	-0.001	-0.001	-0.001	-0.001	-0.001
637.00	0.000	-0.000	0.000	0.000	-0.001	0.000	-0.000	-0.001	-0.000	-0.001	-0.001	-0.001	-0.001
638.00	0.000	-0.001	0.000	0.000	-0.001	0.000	-0.000	-0.001	-0.000	-0.001	-0.001	-0.001	-0.001
639.00	0.000	-0.001	0.000	0.000	-0.001	-0.000	-0.000	-0.001	-0.000	-0.001	-0.001	-0.001	-0.001
640.00	0.000	-0.000	0.000	0.000	-0.001	0.000	-0.000	-0.001	-0.000	-0.001	-0.001	-0.001	-0.001
641.00	0.000	-0.000	0.000	0.000	-0.001	0.000	-0.000	-0.001	-0.000	-0.001	-0.001	-0.001	-0.001
642.00	0.000	-0.000	0.000	0.000	-0.001	0.000	-0.000	-0.001	-0.000	-0.001	-0.001	-0.001	-0.001
643.00	0.000	-0.001	0.000	0.000	-0.001	-0.000	-0.000	-0.001	-0.001	-0.001	-0.001	-0.001	-0.001
644.00	0.000	-0.000	0.000	0.000	-0.001	0.000	-0.000	-0.001	-0.000	-0.001	-0.001	-0.001	-0.001
645.00	0.000	-0.000	0.000	0.000	-0.001	0.000	-0.000	-0.001	-0.000	-0.001	-0.001	-0.001	-0.001
646.00	0.000	-0.000	0.000	0.000	-0.001	0.000	-0.000	-0.001	-0.000	-0.001	-0.001	-0.001	-0.001
647.00	0.000	-0.000	0.000	0.000	-0.001	-0.000	-0.000	-0.001	-0.000	-0.001	-0.001	-0.001	-0.001
648.00	0.000	-0.000	0.000	0.000	-0.001	-0.000	-0.000	-0.001	-0.000	-0.001	-0.001	-0.001	-0.001
649.00	0.000	-0.000	0.000	0.000	-0.001	-0.000	-0.000	-0.001	-0.000	-0.001	-0.001	-0.001	-0.001
650.00	0.000	-0.000	0.000	0.000	-0.001	-0.000	-0.000	-0.001	-0.000	-0.001	-0.001	-0.001	-0.001
651.00	0.000	-0.000	0.000	0.000	-0.001	0.000	-0.000	-0.001	-0.000	-0.001	-0.001	-0.001	-0.001
652.00	0.000	-0.000	0.000	0.000	-0.001	0.000	-0.000	-0.001	-0.000	-0.001	-0.001	-0.001	-0.001
653.00	0.000	-0.000	0.000	0.000	-0.001	-0.000	-0.000	-0.001	-0.000	-0.001	-0.001	-0.001	-0.001
654.00	0.000	-0.000	0.000	0.000	-0.001	0.000	-0.000	-0.001	-0.000	-0.001	-0.001	-0.001	-0.001
655.00	0.000	-0.000	0.000	0.000	-0.001	0.000	-0.000	-0.001	-0.000	-0.001	-0.001	-0.001	-0.001
656.00	0.001	-0.000	0.000	0.001	-0.001	0.000	-0.000	-0.001	-0.000	-0.001	-0.001	-0.001	-0.001
657.00	0.000	-0.000	0.000	0.000	-0.001	0.000	-0.000	-0.001	-0.000	-0.001	-0.001	-0.001	-0.001
658.00	0.000	-0.000	0.000	0.000	-0.001	0.000	-0.000	-0.001	-0.000	-0.001	-0.001	-0.001	-0.001
659.00	0.000	-0.000	0.000	0.000	-0.001	-0.000	-0.000	-0.001	-0.000	-0.001	-0.001	-0.001	-0.001
660.00	0.000	-0.000	0.000	0.000	-0.001	0.000	-0.000	-0.001	-0.000	-0.001	-0.001	-0.001	-0.001
661.00	0.000	-0.000	0.000	0.000	-0.001	0.000	-0.000	-0.001	-0.000	-0.001	-0.001	-0.001	-0.001
662.00	0.000	-0.000	0.000	0.000	-0.001	0.000	-0.000	-0.001	-0.000	-0.001	-0.001	-0.001	-0.001
663.00	0.000	-0.000	0.000	0.000	-0.001	0.000	-0.000	-0.001	-0.000	-0.001	-0.001	-0.001	-0.001
664.00	0.000	-0.000	0.000	0.000	-0.001	-0.000	-0.000	-0.001	-0.000	-0.001	-0.001	-0.001	-0.001
665.00	0.000	-0.000	0.000	0.000	-0.001	-0.000	-0.000	-0.001	-0.000	-0.001	-0.001	-0.001	-0.001
666.00	0.001	-0.000	0.000	0.001	-0.001	-0.000	-0.000	-0.001	-0.000	-0.001	-0.001	-0.001	-0.001
667.00	0.001	-0.000	0.000	0.001	-0.001	-0.000	-0.000	-0.001	-0.000	-0.001	-0.001	-0.001	-0.001
668.00	0.000	-0.000	0.000	0.000	-0.001	-0.000	-0.000	-0.001	-0.000	-0.001	-0.001	-0.001	-0.001
669.00	0.001	-0.000	0.000	0.001	-0.001	-0.000	-0.000	-0.001	-0.000	-0.001	-0.001	-0.001	-0.001
670.00	0.001	-0.000	0.000	0.001	-0.001	-0.000	-0.000	-0.001	-0.000	-0.001	-0.001	-0.001	-0.001
671.00	0.001	-0.000	0.000	0.000	-0.001	-0.000	-0.000	-0.001	-0.000	-0.001	-0.001	-0.001	-0.001
672.00	0.001	-0.000	0.000	0.000	-0.001	-0.000	-0.000	-0.001	-0.000	-0.001	-0.001	-0.001	-0.001
673.00	0.001	-0.000	0.000	0.000	-0.001	-0.000	-0.000	-0.001	-0.000	-0.001	-0.001	-0.001	-0.001
674.00	0.001	-0.000	0.000	0.000	-0.001	-0.000	-0.000	-0.001	-0.000	-0.001	-0.001	-0.001	-0.001
675.00	0.001	-0.000	0.000	0.000	-0.001	-0.000	-0.000	-0.001	-0.000	-0.001	-0.001	-0.001	-0.001
676.00	0.000	-0.000	0.000	0.000	-0.001	-0.000	-0.000	-0.001	-0.000	-0.001	-0.001	-0.001	-0.001
677.00	0.000	-0.000	0.000	0.000	-0.001	-0.000	-0.000	-0.001	-0.000	-0.001	-0.001	-0.001	-0.001
678.00	0.001	-0.000	0.000	0.000	-0.001	-0.000	-0.000	-0.001	-0.000	-0.001	-0.001	-0.001	-0.001
679.00	0.000	-0.001	-0.000	0.000	-0.001	-0.000	-0.000	-0.001	-0.000	-0.001	-0.001	-0.001	-0.001
680.00	0.000	-0.000	0.000	0.000	-0.001	-0.000	-0.000	-0.001	-0.000	-0.001	-0.001	-0.001	-0.001
681.00	0.000	-0.000	0.000	0.000	-0.001	-0.000	-0.000	-0.001	-0.000	-0.001	-0.001	-0.001	-0.001
682.00	0.000	-0.000	0.000	0.000	-0.001	-0.000	-0.000	-0.001	-0.000	-0.001	-0.001	-0.001	-0.001
683.00	0.000	-0.000	0.000	0.000	-0.001	-0.000	-0.000	-0.001	-0.000	-0.001	-0.001	-0.001	-0.001
684.00	0.000	-0.000	0.000	0.000	-0.001	-0.000	-0.000	-0.001	-0.000	-0.001	-0.001	-0.001	-0.001
685.00	0.000	-0.000	0.000	0.000	-0.001	-0.000	-0.000	-0.001	-0.000	-0.001	-0.001	-0.001	-0.001
686.00	0.000	-0.000	0.000	0.000	-0.001	-0.000	-0.000	-0.001	-0.000	-0.001	-0.001	-0.001	-0.001
687.00	0.001	-0.000	0.000	0.000	-0.001	-0.000	-0.000	-0.001	-0.000	-0.001	-0.001	-0.001	-0.001
688.00	0.000	-0.000	0.000	0.000	-0.001	-0.000	-0.000	-0.001	-0.000	-0.001	-0.001	-0.001	-0.001
689.00	0.000	-0.000	0.000	0.000	-0.001	-0.000	-0.000	-0.001	-0.000	-0.001	-0.001	-0.001	-0.001
690.00	0.000	-0.001	0.000	0.000	-0.001	-0.000	-0.000	-0.001	-0.000	-0.001	-0.001	-0.001	-0.001
691.00	0.000	-0.001	0.000	0.000	-0.001	-0.000	-0.000	-0.001	-0.000	-0.001	-0.001	-0.001	-0.001
692.00	0.000	-0.000	0.000	0.000	-0.001	-0.000	-0.000	-0.001	-0.000	-0.001	-0.001	-0.001	-0.001
693.00	0.000	-0.000	0.000	0.000	-0.001	-0.000	-0.000	-0.001	-0.000	-0.001	-0.001	-0.001	-0.001
694.00	0.000	-0.000	0.000	0.000	-0.001	-0.000	-0.000	-0.001	-0.000	-0.001	-0.001	-0.001	-0.001
695.00	0.001	-0.000	0.000	0.000	-0.001	-0.000	-0.000	-0.001	-0.000	-0.001	-0.001	-0.001	-0.001
696.00	0.000	-0.000	0.000	0.000	-0.001	-0.000	-0.000	-0.001	-0.000	-0.001	-0.001	-0.001	-0.001
697.00	0.000	-0.001	0.000	0.000	-0.001	-0.000	-0.000	-0.001	-0.000	-0.001	-0.001	-0.001	-0.001
698.00	0.000	-0.001	0.000	0.000	-0.001	-0.000	-0.000	-0.001	-0.000	-0.001	-0.001	-0.001	-0.001
699.00	0.000	-0.001	0.000	0.000	-0.001	-0.000	-0.000	-0.001	-0.000	-0.001	-0.001	-0.001	-0.001
700.00	0.000	-0.000	0.000	0.000	-0.001	-0.000	-0.000	-0.001	-0.000	-0.001	-0.001	-0.001	-0.001
701.00	0.000	-0.001	0.000	0.000	-0.001	-0.000	-0.000	-0.001	-0.000	-0.001	-0.001	-0.001	-0.001
702.00	0.000	-0.001	0.000	0.000	-0.001	-0.000	-0.000	-0.001	-0.000	-0.001	-0.001	-0.001	-0.001
703.00	0.000	-0.001	-0.000	0.000	-0.001	-0.000	-0.000	-0.001	-0.000	-0.001	-0.001	-0.001	-0.001
704.00	0.000	-0.001	0.000	0.000	-0.001	-0.000	-0.000	-0.001	-0.000	-0.001	-0.001	-0.001	-0.001
705.00	0.000	-0.001	0.000	0.000	-0.001	-0.000	-0.000	-0.001	-0.000	-0.001	-0.001	-0.001	-0.001
706.00	0.000	-0.000	0.000	0.000	-0.001	-0.000	-0.000	-0.001	-0.000	-0.001	-0.001	-0.001	-0.001
707.00	0.000	-0.001	0.000	0.000	-0.001	-0.000	-0.000	-0.001	-0.000	-0.001	-0.001	-0.001	-0.001
708.00	0.000	-0.001	0.000	0.000	-0.001	-0.000	-0.000	-0.001	-0.000	-0.001	-0.001	-0.001	-0.001
709.00	0.000	-0.001	0.000	0.000	-0.001	-0.000	-0.000	-0.001	-0.000	-0.001	-0.001	-0.001	-0.001
710.00	0.000	-0.001	-0.000	0.000	-0.001	-0.000	-0.000	-0.001	-0.000	-0.001	-0.001	-0.001	-0.001
711.00	0.000	-0.001	0.000	0.000	-0.001	-0.000	-0.000	-0.001	-0.000	-0.001	-0.001	-0.001	-0.001
712.00	0.000	-0.001	0.000	0.000	-0.001	-0.000	-0.000	-0.001	-0.000	-0.001	-0.001	-0.001	-0.001
713.00	0.000	-0.001	-0.000	0.000	-0.001	-0.000	-0.000	-0.001	-0.001	-0.001	-0.001	-0.001	-0.001
714.00	0.000	-0.001	0.000	0.000	-0.001	-0.000	-0.000	-0.001	-0.000	-0.001	-0.001	-0.001	-0.001
715.00	0.001	-0.001	0.000	0.000	-0.001	-0.000	-0.000	-0.001	-0.000	-0.001	-0.001	-0.001	-0.001
716.00	0.001	-0.000	0.000	0.000	-0.001	-0.000	-0.000	-0.001	-0.000	-0.001	-0.001	-0.001	-0.001
717.00	0.000	-0.001	0.000	0.000	-0.001	-0.000	-0.000	-0.001	-0.000	-0.001	-0.001	-0.001	-0.001
718.00	0.000	-0.001	0.000	0.000	-0.001	-0.000	-0.000	-0.001	-0.000	-0.001	-0.001	-0.001	-0.001
719.00	0.000	-0.001	0.000	0.000	-0.001	-0.000	-0.000	-0.001	-0.000	-0.001	-0.001	-0.001	-0.001
720.00	0.000	-0.001	-0.000	0.000	-0.001	-0.000	-0.000	-0.001	-0.001	-0.001	-0.001	-0.001	-0.001
721.00	0.000	-0.001	-0.000	0.000	-0.001	-0.000	-0.000	-0.001	-0.001	-0.001	-0.001	-0.001	-0.001
722.00	0.000	-0.001	0.000	0.000	-0.001	-0.000	-0.000	-0.001	-0.001	-0.001	-0.001	-0.001	-0.001
723.00	0.000	-0.001	0.000	0.000	-0.001	-0.000	-0.000	-0.001	-0.001	-0.001	-0.001	-0.001	-0.001
724.00	0.000	-0.001	0.000	0.000	-0.001	-0.000	-0.000	-0.001	-0.001	-0.001	-0.001	-0.001	-0.001
725.00	0.000	-0.001	-0.000	0.000	-0.001	-0.000	-0.000	-0.001	-0.001	-0.001	-0.001	-0.001	-0.001
726.00	0.000	-0.001	-0.000	0.000	-0.001	-0.000	-0.000	-0.001	-0.001	-0.001	-0.001	-0.001	-0.001
727.00	0.000	-0.001	0.000	0.000	-0.001	-0.000	-0.000	-0.001	-0.001	-0.001	-0.001	-0.001	-0.001
728.00	0.000	-0.001	0.000	0.000	-0.001	-0.000	-0.000	-0.001	-0.001	-0.001	-0.001	-0.001	-0.001
729.00	0.000	-0.001	-0.000	0.000	-0.001	-0.000	-0.000	-0.001	-0.001	-0.001	-0.001	-0.001	-0.001
730.00	0.000	-0.001	-0.000	0.000	-0.001	-0.000	-0.000	-0.001	-0.001	-0.001	-0.001	-0.001	-0.001
731.00	0.000	-0.001	-0.000	0.000	-0.001	-0.000	-0.000	-0.001	-0.001	-0.001	-0.001	-0.001	-0.001
732.00	0.000	-0.001	-0.000	0.000	-0.001	-0.000	-0.000	-0.001	-0.001	-0.001	-0.001	-0.001	-0.001
733.00	0.000	-0.001	-0.000	0.000	-0.001	-0.000	-0.000	-0.001	-0.001	-0.001	-0.001	-0.001	-0.001
734.00	0.000	-0.001	-0.000	0.000	-0.001	-0.000	-0.000	-0.001	-0.001	-0.001	-0.001	-0.001	-0.001
735.00	0.000	-0.001	-0.000	0.000	-0.001	-0.000	-0.000	-0.001	-0.001	-0.001	-0.001	-0.001	-0.001
736.00	0.000	-0.001	-0.000	0.000	-0.001	-0.000	-0.000	-0.001	-0.001	-0.001	-0.001	-0.001	-0.001
737.00	0.000	-0.001	-0.000	0.000	-0.001	-0.000	-0.000	-0.001	-0.001	-0.001	-0.001	-0.001	-0.001
738.00	0.000	-0.001	-0.000	0.000	-0.001	-0.000	-0.000	-0.001	-0.001	-0.001	-0.001	-0.001	-0.001
739.00	0.000	-0.001	-0.000	0.000	-0.001	-0.000	-0.000	-0.001	-0.001	-0.001	-0.001	-0.001	-0.001
740.00	0.000	-0.001	-0.000	0.000	-0.001	-0.000	-0.000	-0.001	-0.000	-0.001	-0.001	-0.001	-0.001
741.00	0.000	-0.001	-0.000	0.000	-0.001	-0.000	-0.000	-0.001	-0.001	-0.001	-0.001	-0.001	-0.001
742.00	0.000	-0.001	-0.000	0.000	-0.001	-0.000	-0.000	-0.001	-0.001	-0.001	-0.001	-0.001	-0.001
743.00	0.000	-0.001	-0.000	0.000	-0.001	-0.000	-0.000	-0.001	-0.001	-0.001	-0.001	-0.001	-0.001
744.00	0.000	-0.001	-0.000	0.000	-0.001	-0.000	-0.000	-0.001	-0.000	-0.001	-0.001	-0.001	-0.001
745.00	0.000	-0.001	-0.000	0.000	-0.001	-0.000	-0.000	-0.001	-0.001	-0.001	-0.001	-0.001	-0.001
746.00	0.000	-0.001	-0.000	0.000	-0.001	-0.000	-0.000	-0.001	-0.001	-0.001	-0.001	-0.001	-0.001
747.00	0.000	-0.001	-0.000	0.000	-0.001	-0.000	-0.000	-0.001	-0.000	-0.001	-0.001	-0.001	-0.001
748.00	0.000	-0.001	-0.000	0.000	-0.001	-0.000	-0.000	-0.001	-0.001	-0.001	-0.001	-0.001	-0.001
749.00	0.000	-0.001	-0.000	0.000	-0.001	-0.000	-0.000	-0.001	-0.001	-0.001	-0.001	-0.001	-0.001
750.00	0.000	-0.001	-0.000	0.000	-0.001	-0.000	-0.000	-0.001	-0.001	-0.001	-0.001	-0.001	-0.001
751.00	0.000	-0.001	-0.000	0.000	-0.001	-0.000	-0.000	-0.001	-0.001	-0.001	-0.001	-0.001	-0.001
752.00	0.001	-0.001	-0.000	0.000	-0.001	-0.000	-0.000	-0.001	-0.000	-0.001	-0.001	-0.001	-0.001
753.00	0.001	-0.001	-0.000	0.000	-0.001	-0.000	-0.000	-0.001	-0.000	-0.001	-0.001	-0.001	-0.001
754.00	0.001	-0.001	-0.000	0.000	-0.001	-0.000	-0.000	-0.001	-0.000	-0.001	-0.001	-0.001	-0.001
755.00	0.001	-0.001	-0.000	0.000	-0.001	-0.000	-0.000	-0.001	-0.000	-0.001	-0.001	-0.001	-0.001
756.00	0.001	-0.001	-0.000	0.000	-0.001	-0.000	-0.000	-0.001	-0.000	-0.001	-0.001	-0.001	-0.001
757.00	0.001	-0.001	-0.000	0.000	-0.001	-0.000	-0.000	-0.001	-0.000	-0.001	-0.001	-0.001	-0.001
758.00	0.001	-0.000	-0.000	0.000	-0.001	-0.000	-0.000	-0.001	-0.000	-0.001	-0.001	-0.001	-0.001
759.00	0.001	-0.000	0.000	0.001	-0.001	0.000	0.000	-0.000	-0.000	-0.001	-0.000	-0.000	-0.001
760.00	0.002	0.001	0.001	0.001	0.000	0.001	0.001	0.001	0.001	0.000	0.001	0.000	0.000
761.00	0.000	-0.000	0.000	0.001	-0.001	0.000	-0.000	-0.000	-0.000	-0.001	-0.000	-0.000	-0.001
762.00	0.000	-0.001	-0.000	0.000	-0.001	-0.000	-0.000	-0.001	-0.000	-0.001	-0.001	-0.001	-0.001
763.00	0.000	-0.001	-0.000	0.000	-0.001	-0.000	-0.000	-0.001	-0.001	-0.001	-0.001	-0.001	-0.001
764.00	0.000	-0.001	-0.000	0.000	-0.001	-0.000	-0.000	-0.001	-0.001	-0.001	-0.001	-0.001	-0.001
765.00	0.000	-0.001	-0.000	0.000	-0.001	-0.000	-0.000	-0.001	-0.001	-0.001	-0.001	-0.001	-0.001
766.00	0.000	-0.001	-0.000	0.000	-0.001	-0.000	-0.000	-0.001	-0.001	-0.001	-0.001	-0.001	-0.001
767.00	0.000	-0.001	-0.000	0.000	-0.001	-0.000	-0.000	-0.001	-0.001	-0.001	-0.001	-0.001	-0.001
768.00	0.000	-0.001	-0.000	0.000	-0.001	-0.000	-0.000	-0.001	-0.001	-0.001	-0.001	-0.001	-0.001
769.00	0.000	-0.001	-0.000	0.000	-0.001	-0.000	-0.000	-0.001	-0.001	-0.001	-0.001	-0.001	-0.001
770.00	0.000	-0.001	-0.000	0.000	-0.001	-0.000	-0.000	-0.001	-0.001	-0.001	-0.001	-0.001	-0.001
771.00	0.000	-0.001	-0.000	0.000	-0.001	-0.000	-0.000	-0.001	-0.001	-0.001	-0.001	-0.001	-0.001
772.00	0.000	-0.001	-0.000	0.000	-0.001	-0.000	-0.000	-0.001	-0.001	-0.001	-0.001	-0.001	-0.001
773.00	0.000	-0.001	-0.000	0.000	-0.001	-0.000	-0.000	-0.001	-0.001	-0.001	-0.001	-0.001	-0.001
774.00	0.000	-0.001	-0.000	0.000	-0.001	-0.000	-0.000	-0.001	-0.001	-0.001	-0.001	-0.001	-0.001
775.00	0.000	-0.001	-0.000	0.000	-0.001	-0.000	-0.000	-0.001	-0.001	-0.001	-0.001	-0.001	-0.001
776.00	0.000	-0.001	-0.000	0.000	-0.001	-0.000	-0.000	-0.001	-0.001	-0.001	-0.001	-0.001	-0.001
777.00	0.000	-0.001	-0.000	0.000	-0.001	-0.000	-0.000	-0.001	-0.001	-0.001	-0.001	-0.001	-0.001
778.00	0.000	-0.001	-0.000	0.000	-0.001	-0.000	-0.000	-0.001	-0.001	-0.001	-0.001	-0.001	-0.001
779.00	0.000	-0.001	-0.000	0.000	-0.001	-0.000	-0.000	-0.001	-0.001	-0.001	-0.001	-0.001	-0.001
780.00	0.000	-0.001	-0.000	0.000	-0.001	-0.000	-0.000	-0.001	-0.001	-0.001	-0.001	-0.001	-0.001
781.00	0.000	-0.001	-0.000	0.000	-0.001	-0.000	-0.000	-0.001	-0.001	-0.001	-0.001	-0.001	-0.001
782.00	0.000	-0.001	-0.000	0.000	-0.001	-0.000	-0.000	-0.001	-0.000	-0.001	-0.001	-0.001	-0.001
783.00	0.000	-0.000	-0.000	0.000	-0.001	-0.000	-0.000	-0.001	-0.000	-0.001	-0.001	-0.001	-0.001
784.00	0.000	-0.001	-0.000	0.000	-0.001	-0.000	-0.000	-0.001	-0.000	-0.001	-0.001	-0.001	-0.001
785.00	0.000	-0.001	-0.000	0.000	-0.001	-0.000	-0.000	-0.001	-0.001	-0.001	-0.001	-0.001	-0.001
786.00	0.000	-0.001	-0.000	0.000	-0.001	-0.000	-0.000	-0.001	-0.001	-0.001	-0.001	-0.001	-0.001
787.00	0.000	-0.001	-0.000	0.000	-0.001	-0.000	-0.000	-0.001	-0.000	-0.001	-0.001	-0.001	-0.001
788.00	0.000	-0.000	-0.000	0.000	-0.001	-0.000	-0.000	-0.001	-0.000	-0.001	-0.001	-0.001	-0.001
789.00	0.000	-0.000	-0.000	0.000	-0.001	0.000	-0.000	-0.001	-0.000	-0.001	-0.000	-0.001	-0.001
790.00	0.000	-0.000	-0.000	0.000	-0.001	0.000	-0.000	-0.001	-0.000	-0.001	-0.000	-0.001	-0.001
791.00	0.000	-0.000	-0.000	0.000	-0.001	0.000	-0.000	-0.001	-0.000	-0.001	-0.001	-0.001	-0.001
792.00	0.000	-0.000	-0.000	0.000	-0.001	-0.000	-0.000	-0.001	-0.001	-0.001	-0.001	-0.001	-0.001
793.00	0.000	-0.000	-0.000	0.000	-0.001	-0.000	-0.000	-0.001	-0.000	-0.001	-0.001	-0.001	-0.001
794.00	0.000	-0.000	-0.000	0.000	-0.001	-0.000	-0.000	-0.001	-0.001	-0.001	-0.001	-0.001	-0.001
795.00	0.000	-0.000	-0.000	0.000	-0.001	-0.000	-0.000	-0.001	-0.000	-0.001	-0.001	-0.001	-0.001
796.00	0.000	-0.000	-0.000	0.000	-0.001	-0.000	-0.000	-0.001	-0.000	-0.001	-0.001	-0.001	-0.001
797.00	0.000	-0.001	-0.000	0.000	-0.001	-0.000	-0.000	-0.001	-0.001	-0.001	-0.001	-0.001	-0.001
798.00	0.000	-0.001	-0.000	0.000	-0.001	-0.000	-0.000	-0.001	-0.001	-0.001	-0.001	-0.001	-0.001
799.00	0.000	-0.000	-0.000	0.000	-0.001	-0.000	-0.000	-0.001	-0.001	-0.001	-0.001	-0.001	-0.001
800.00	0.000	-0.001	-0.000	0.000	-0.001	-0.000	-0.000	-0.001	-0.001	-0.001	-0.001	-0.001	-0.001
801.00	0.000	-0.000	-0.000	0.000	-0.001	0.000	-0.000	-0.001	-0.000	-0.001	-0.001	-0.001	-0.001
802.00	0.000	-0.000	-0.000	0.000	-0.001	0.000	-0.000	-0.001	-0.000	-0.001	-0.001	-0.001	-0.001
803.00	0.000	-0.001	-0.000	0.000	-0.001	-0.000	-0.000	-0.001	-0.000	-0.001	-0.001	-0.001	-0.001
804.00	0.000	-0.000	-0.000	0.000	-0.001	-0.000	-0.000	-0.001	-0.000	-0.001	-0.001	-0.001	-0.001
805.00	0.000	-0.001	-0.000	0.000	-0.001	-0.000	-0.000	-0.001	-0.000	-0.001	-0.001	-0.001	-0.001
806.00	0.000	-0.000	-0.000	0.000	-0.001	-0.000	-0.000	-0.000	-0.000	-0.001	-0.000	-0.001	-0.001
807.00	0.000	-0.000	-0.000	0.000	-0.001	-0.000	-0.000	-0.001	-0.000	-0.001	-0.001	-0.001	-0.001
808.00	0.000	-0.000	-0.000	0.000	-0.001	-0.000	-0.000	-0.000	-0.000	-0.001	-0.000	-0.001	-0.001
809.00	0.000	-0.001	-0.000	0.000	-0.001	-0.000	-0.000	-0.001	-0.001	-0.001	-0.001	-0.001	-0.001
810.00	0.000	-0.000	-0.000	0.000	-0.001	-0.000	-0.000	-0.001	-0.001	-0.001	-0.000	-0.001	-0.001
811.00	0.000	-0.000	-0.000	0.000	-0.001	-0.000	-0.000	-0.001	-0.001	-0.001	-0.001	-0.001	-0.001
812.00	0.000	-0.000	-0.000	0.000	-0.001	-0.000	-0.000	-0.001	-0.000	-0.001	-0.001	-0.001	-0.001
813.00	0.000	-0.001	-0.000	0.000	-0.001	-0.000	-0.000	-0.001	-0.001	-0.001	-0.001	-0.001	-0.001
814.00	0.000	-0.001	-0.000	0.000	-0.001	-0.000	-0.000	-0.001	-0.001	-0.001	-0.001	-0.001	-0.001
815.00	0.000	-0.000	-0.000	0.000	-0.001	-0.000	-0.000	-0.001	-0.000	-0.001	-0.001	-0.001	-0.001
816.00	0.000	-0.000	-0.000	0.000	-0.001	-0.000	-0.000	-0.001	-0.000	-0.001	-0.001	-0.001	-0.001
817.00	0.000	-0.001	-0.000	0.000	-0.001	-0.000	-0.000	-0.001	-0.001	-0.001	-0.001	-0.001	-0.001
818.00	0.000	-0.001	-0.000	0.000	-0.001	-0.000	-0.000	-0.001	-0.000	-0.001	-0.001	-0.001	-0.001
819.00	0.000	-0.000	-0.000	0.000	-0.001	-0.000	-0.000	-0.001	-0.000	-0.001	-0.001	-0.001	-0.001
820.00	0.000	-0.001	-0.000	0.000	-0.001	-0.000	-0.000	-0.001	-0.001	-0.001	-0.001	-0.001	-0.001
821.00	0.000	-0.001	-0.000	0.000	-0.001	-0.000	-0.000	-0.001	-0.001	-0.001	-0.001	-0.001	-0.001
822.00	0.000	-0.000	-0.000	0.000	-0.001	-0.000	-0.000	-0.001	-0.001	-0.001	-0.001	-0.001	-0.001
823.00	0.000	-0.001	-0.000	0.000	-0.001	-0.000	-0.000	-0.001	-0.001	-0.001	-0.001	-0.001	-0.001
824.00	0.000	-0.001	-0.000	0.000	-0.001	-0.000	-0.000	-0.001	-0.001	-0.001	-0.001	-0.001	-0.001
825.00	0.000	-0.001	-0.000	0.000	-0.001	-0.000	-0.000	-0.001	-0.001	-0.001	-0.001	-0.001	-0.001
826.00	0.000	-0.001	-0.000	0.000	-0.001	-0.000	-0.000	-0.001	-0.001	-0.001	-0.001	-0.001	-0.001
827.00	0.000	-0.001	-0.000	0.000	-0.001	-0.000	-0.000	-0.001	-0.001	-0.001	-0.001	-0.001	-0.001
828.00	0.000	-0.001	-0.000	0.000	-0.001	-0.000	-0.000	-0.001	-0.001	-0.001	-0.001	-0.001	-0.001
829.00	0.000	-0.001	-0.000	0.000	-0.001	-0.000	-0.000	-0.001	-0.001	-0.001	-0.001	-0.001	-0.001
830.00	0.000	-0.001	-0.000	0.000	-0.001	-0.000	-0.000	-0.001	-0.001	-0.001	-0.001	-0.001	-0.001
831.00	0.000	-0.001	-0.000	0.000	-0.001	-0.000	-0.000	-0.001	-0.001	-0.001	-0.001	-0.001	-0.001
832.00	0.000	-0.001	-0.000	0.000	-0.001	-0.000	-0.000	-0.001	-0.001	-0.001	-0.001	-0.001	-0.001
833.00	0.000	-0.001	-0.000	0.000	-0.001	-0.000	-0.000	-0.001	-0.001	-0.001	-0.001	-0.001	-0.001
834.00	0.000	-0.001	-0.000	0.000	-0.001	-0.000	-0.000	-0.001	-0.001	-0.001	-0.001	-0.001	-0.001
835.00	0.000	-0.001	-0.000	0.000	-0.001	-0.000	-0.000	-0.001	-0.001	-0.001	-0.001	-0.001	-0.001
836.00	0.000	-0.001	-0.000	0.000	-0.001	-0.000	-0.000	-0.001	-0.001	-0.001	-0.001	-0.001	-0.001
837.00	0.000	-0.001	-0.000	0.000	-0.001	-0.000	-0.000	-0.001	-0.001	-0.001	-0.001	-0.001	-0.001
838.00	0.000	-0.001	-0.000	0.000	-0.001	-0.000	-0.000	-0.001	-0.001	-0.001	-0.001	-0.001	-0.001
839.00	0.000	-0.001	-0.000	0.000	-0.001	-0.000	-0.000	-0.001	-0.001	-0.001	-0.001	-0.001	-0.001
840.00	0.000	-0.001	-0.000	0.000	-0.001	-0.000	-0.000	-0.001	-0.001	-0.001	-0.001	-0.001	-0.001
841.00	0.000	-0.001	-0.000	0.000	-0.001	-0.000	-0.000	-0.001	-0.001	-0.001	-0.001	-0.001	-0.001
842.00	0.000	-0.001	-0.000	0.000	-0.001	-0.000	-0.000	-0.001	-0.001	-0.001	-0.001	-0.001	-0.001
843.00	0.000	-0.001	-0.000	0.000	-0.001	-0.000	-0.000	-0.001	-0.001	-0.001	-0.001	-0.001	-0.001
844.00	0.000	-0.001	-0.000	0.000	-0.001	-0.000	-0.000	-0.001	-0.001	-0.001	-0.001	-0.001	-0.001
845.00	0.000	-0.001	-0.000	0.000	-0.001	-0.000	-0.000	-0.001	-0.001	-0.001	-0.001	-0.001	-0.001
846.00	0.000	-0.001	-0.000	0.000	-0.001	-0.000	-0.000	-0.001	-0.001	-0.001	-0.001	-0.001	-0.001
847.00	0.000	-0.001	-0.000	-0.000	-0.001	-0.000	-0.000	-0.001	-0.001	-0.001	-0.001	-0.001	-0.001
848.00	0.000	-0.001	-0.000	0.000	-0.001	-0.000	-0.000	-0.001	-0.001	-0.001	-0.001	-0.001	-0.001
849.00	0.000	-0.001	-0.000	0.000	-0.001	-0.000	-0.000	-0.001	-0.001	-0.001	-0.001	-0.001	-0.001
850.00	0.000	-0.001	-0.000	-0.000	-0.001	-0.000	-0.000	-0.001	-0.001	-0.001	-0.001	-0.001	-0.001
