Wavelength nm.	RawData ...	RawData ...	RawData ...	RawData ...	RawData ...	RawData ...	RawData ...	RawData ...	RawData ...	RawData ...	RawData ...	RawData ...	RawData ...	RawData ...	RawData ...	RawData ...
190.00	0.001	0.315	0.298	0.400	0.404	0.405	0.390	0.481	0.297	0.294	0.455	0.339	0.373	0.635	0.383	0.396
191.00	0.001	0.301	0.286	0.368	0.370	0.373	0.360	0.449	0.287	0.284	0.423	0.314	0.345	0.604	0.350	0.362
192.00	0.001	0.290	0.277	0.337	0.340	0.345	0.331	0.417	0.281	0.276	0.394	0.290	0.319	0.574	0.322	0.333
193.00	0.001	0.279	0.266	0.304	0.307	0.315	0.300	0.383	0.272	0.268	0.361	0.264	0.289	0.542	0.291	0.301
194.00	-0.000	0.269	0.258	0.278	0.281	0.290	0.275	0.357	0.264	0.261	0.337	0.243	0.264	0.515	0.267	0.275
195.00	0.000	0.261	0.251	0.253	0.256	0.267	0.252	0.330	0.260	0.255	0.313	0.224	0.241	0.487	0.244	0.251
196.00	0.000	0.255	0.245	0.233	0.236	0.247	0.233	0.309	0.254	0.250	0.293	0.208	0.223	0.463	0.227	0.229
197.00	0.001	0.249	0.240	0.215	0.218	0.230	0.215	0.290	0.250	0.245	0.277	0.193	0.206	0.440	0.210	0.210
198.00	0.000	0.244	0.235	0.199	0.203	0.215	0.200	0.273	0.244	0.242	0.262	0.180	0.192	0.415	0.196	0.194
199.00	0.000	0.240	0.232	0.185	0.189	0.203	0.186	0.260	0.241	0.238	0.249	0.169	0.180	0.392	0.183	0.181
200.00	0.001	0.236	0.228	0.174	0.177	0.192	0.175	0.248	0.238	0.235	0.238	0.160	0.169	0.371	0.173	0.169
201.00	0.000	0.232	0.225	0.163	0.166	0.182	0.165	0.237	0.234	0.232	0.228	0.152	0.160	0.353	0.164	0.160
202.00	0.001	0.228	0.221	0.154	0.157	0.173	0.157	0.228	0.230	0.229	0.220	0.144	0.151	0.337	0.155	0.150
203.00	0.001	0.225	0.218	0.146	0.150	0.165	0.149	0.219	0.227	0.226	0.212	0.138	0.145	0.322	0.148	0.143
204.00	0.001	0.221	0.215	0.139	0.143	0.158	0.143	0.211	0.224	0.223	0.205	0.132	0.138	0.308	0.142	0.135
205.00	0.001	0.218	0.212	0.133	0.136	0.152	0.136	0.204	0.220	0.219	0.198	0.127	0.132	0.295	0.136	0.129
206.00	0.001	0.215	0.209	0.128	0.131	0.147	0.132	0.198	0.217	0.216	0.192	0.123	0.127	0.284	0.131	0.124
207.00	0.001	0.211	0.206	0.124	0.126	0.142	0.127	0.192	0.213	0.213	0.187	0.119	0.123	0.273	0.127	0.120
208.00	0.001	0.208	0.202	0.119	0.122	0.138	0.123	0.186	0.210	0.210	0.181	0.116	0.119	0.263	0.123	0.115
209.00	0.001	0.204	0.199	0.115	0.118	0.133	0.119	0.180	0.206	0.206	0.175	0.112	0.116	0.253	0.119	0.111
210.00	0.001	0.200	0.195	0.112	0.114	0.130	0.116	0.174	0.202	0.202	0.170	0.109	0.112	0.244	0.116	0.108
211.00	0.001	0.197	0.192	0.109	0.111	0.126	0.112	0.168	0.198	0.199	0.164	0.106	0.109	0.235	0.112	0.105
212.00	0.001	0.193	0.188	0.106	0.108	0.122	0.109	0.162	0.194	0.195	0.158	0.103	0.106	0.227	0.109	0.102
213.00	0.001	0.189	0.185	0.103	0.105	0.119	0.106	0.157	0.190	0.191	0.152	0.101	0.102	0.219	0.106	0.099
214.00	0.001	0.185	0.181	0.100	0.102	0.116	0.103	0.151	0.185	0.187	0.145	0.098	0.100	0.211	0.103	0.096
215.00	0.001	0.181	0.177	0.097	0.099	0.113	0.101	0.145	0.181	0.183	0.139	0.096	0.097	0.204	0.101	0.093
216.00	0.001	0.177	0.174	0.094	0.097	0.110	0.098	0.139	0.177	0.179	0.134	0.093	0.094	0.197	0.098	0.091
217.00	0.001	0.174	0.171	0.092	0.094	0.107	0.096	0.134	0.173	0.175	0.127	0.091	0.092	0.190	0.096	0.089
218.00	0.001	0.170	0.167	0.090	0.092	0.105	0.094	0.129	0.170	0.172	0.122	0.089	0.089	0.184	0.094	0.087
219.00	0.001	0.167	0.164	0.088	0.090	0.103	0.092	0.124	0.166	0.169	0.117	0.087	0.087	0.179	0.092	0.085
220.00	0.001	0.164	0.161	0.086	0.088	0.100	0.090	0.120	0.163	0.166	0.111	0.085	0.085	0.174	0.090	0.083
221.00	0.001	0.161	0.158	0.085	0.086	0.098	0.088	0.115	0.160	0.163	0.106	0.084	0.083	0.169	0.088	0.081
222.00	0.001	0.158	0.156	0.083	0.085	0.096	0.086	0.111	0.157	0.160	0.102	0.082	0.081	0.164	0.086	0.079
223.00	0.001	0.155	0.153	0.081	0.083	0.094	0.084	0.107	0.154	0.157	0.097	0.080	0.080	0.159	0.085	0.078
224.00	0.001	0.152	0.151	0.080	0.082	0.092	0.083	0.103	0.151	0.154	0.093	0.079	0.078	0.155	0.083	0.076
225.00	0.001	0.150	0.148	0.078	0.080	0.090	0.081	0.099	0.149	0.152	0.089	0.077	0.076	0.150	0.082	0.074
226.00	0.001	0.147	0.146	0.076	0.078	0.089	0.079	0.096	0.146	0.149	0.086	0.075	0.075	0.146	0.080	0.073
227.00	0.001	0.145	0.143	0.075	0.077	0.087	0.077	0.093	0.143	0.146	0.082	0.074	0.073	0.141	0.078	0.071
228.00	0.001	0.142	0.141	0.074	0.076	0.085	0.076	0.090	0.141	0.144	0.079	0.073	0.071	0.138	0.077	0.070
229.00	0.001	0.140	0.139	0.072	0.074	0.083	0.075	0.087	0.139	0.142	0.077	0.071	0.070	0.134	0.076	0.069
230.00	0.001	0.138	0.137	0.071	0.073	0.082	0.073	0.085	0.136	0.140	0.074	0.070	0.068	0.130	0.074	0.067
231.00	0.001	0.136	0.135	0.070	0.072	0.081	0.072	0.083	0.134	0.137	0.072	0.069	0.067	0.127	0.073	0.066
232.00	0.001	0.134	0.133	0.068	0.070	0.079	0.071	0.081	0.132	0.135	0.069	0.068	0.066	0.123	0.072	0.065
233.00	0.001	0.132	0.131	0.067	0.069	0.078	0.069	0.079	0.130	0.133	0.068	0.067	0.065	0.119	0.071	0.064
234.00	0.001	0.130	0.129	0.066	0.068	0.076	0.068	0.077	0.128	0.131	0.066	0.066	0.064	0.116	0.070	0.063
235.00	0.001	0.128	0.127	0.065	0.067	0.075	0.067	0.075	0.126	0.129	0.064	0.065	0.062	0.114	0.069	0.061
236.00	0.001	0.126	0.125	0.064	0.066	0.074	0.066	0.074	0.124	0.127	0.062	0.063	0.061	0.111	0.067	0.060
237.00	0.001	0.124	0.123	0.063	0.065	0.072	0.065	0.072	0.122	0.125	0.061	0.062	0.060	0.109	0.066	0.059
238.00	0.001	0.122	0.121	0.062	0.063	0.071	0.064	0.071	0.120	0.123	0.060	0.062	0.059	0.106	0.065	0.058
239.00	0.001	0.120	0.120	0.061	0.063	0.070	0.063	0.070	0.119	0.121	0.059	0.061	0.059	0.104	0.064	0.058
240.00	0.001	0.119	0.118	0.060	0.062	0.070	0.062	0.068	0.117	0.120	0.058	0.060	0.058	0.102	0.064	0.057
241.00	0.001	0.117	0.117	0.059	0.061	0.069	0.062	0.067	0.115	0.118	0.057	0.059	0.057	0.101	0.063	0.056
242.00	0.001	0.116	0.115	0.058	0.060	0.068	0.061	0.066	0.114	0.117	0.056	0.059	0.056	0.099	0.062	0.055
243.00	0.001	0.114	0.114	0.058	0.060	0.067	0.060	0.066	0.112	0.115	0.055	0.058	0.056	0.097	0.061	0.055
244.00	0.001	0.113	0.112	0.057	0.059	0.066	0.059	0.065	0.111	0.114	0.055	0.057	0.055	0.095	0.061	0.054
245.00	0.001	0.111	0.111	0.056	0.058	0.065	0.059	0.064	0.110	0.112	0.054	0.056	0.054	0.094	0.060	0.053
246.00	0.001	0.110	0.109	0.056	0.058	0.064	0.058	0.063	0.108	0.111	0.053	0.056	0.054	0.092	0.059	0.053
247.00	0.001	0.109	0.108	0.055	0.057	0.064	0.058	0.062	0.107	0.109	0.053	0.055	0.053	0.090	0.059	0.052
248.00	0.001	0.107	0.107	0.054	0.056	0.063	0.057	0.061	0.106	0.108	0.052	0.055	0.053	0.089	0.058	0.052
249.00	0.001	0.106	0.106	0.054	0.056	0.062	0.056	0.061	0.105	0.107	0.051	0.054	0.052	0.088	0.057	0.051
250.00	0.001	0.106	0.105	0.054	0.056	0.062	0.056	0.061	0.104	0.106	0.051	0.054	0.052	0.087	0.057	0.051
251.00	0.001	0.105	0.104	0.053	0.055	0.062	0.056	0.060	0.103	0.105	0.051	0.054	0.052	0.086	0.057	0.051
252.00	0.001	0.104	0.103	0.053	0.055	0.061	0.055	0.059	0.102	0.104	0.050	0.053	0.051	0.085	0.056	0.050
253.00	0.001	0.103	0.102	0.052	0.054	0.060	0.055	0.059	0.101	0.103	0.050	0.053	0.051	0.084	0.056	0.050
254.00	0.001	0.101	0.101	0.052	0.054	0.060	0.054	0.058	0.100	0.102	0.049	0.052	0.050	0.083	0.055	0.049
255.00	0.001	0.101	0.100	0.051	0.053	0.059	0.054	0.058	0.099	0.101	0.049	0.052	0.050	0.082	0.055	0.049
256.00	0.001	0.100	0.099	0.051	0.053	0.059	0.054	0.057	0.098	0.100	0.049	0.051	0.050	0.082	0.054	0.049
257.00	0.001	0.098	0.098	0.051	0.052	0.058	0.053	0.057	0.097	0.099	0.048	0.051	0.049	0.081	0.054	0.048
258.00	0.001	0.098	0.097	0.050	0.052	0.058	0.052	0.056	0.096	0.098	0.048	0.050	0.049	0.080	0.053	0.048
259.00	0.001	0.097	0.097	0.050	0.052	0.057	0.052	0.056	0.095	0.097	0.047	0.050	0.048	0.080	0.053	0.047
260.00	0.001	0.096	0.096	0.049	0.051	0.057	0.052	0.055	0.094	0.096	0.047	0.050	0.048	0.079	0.052	0.047
261.00	0.001	0.095	0.095	0.049	0.051	0.056	0.051	0.055	0.094	0.095	0.046	0.049	0.048	0.079	0.052	0.047
262.00	0.001	0.094	0.094	0.048	0.050	0.056	0.051	0.054	0.093	0.094	0.046	0.049	0.047	0.078	0.052	0.046
263.00	0.001	0.093	0.093	0.048	0.050	0.055	0.050	0.054	0.092	0.093	0.045	0.048	0.046	0.077	0.051	0.046
264.00	0.001	0.092	0.092	0.047	0.050	0.055	0.050	0.053	0.091	0.092	0.045	0.047	0.046	0.076	0.050	0.045
265.00	0.001	0.091	0.091	0.047	0.049	0.054	0.049	0.053	0.090	0.091	0.044	0.047	0.045	0.076	0.050	0.045
266.00	0.001	0.090	0.090	0.046	0.048	0.053	0.048	0.052	0.089	0.090	0.044	0.046	0.045	0.075	0.049	0.044
267.00	0.001	0.089	0.089	0.046	0.048	0.052	0.048	0.052	0.088	0.089	0.043	0.046	0.044	0.074	0.049	0.043
268.00	0.001	0.088	0.088	0.045	0.047	0.052	0.047	0.051	0.087	0.088	0.043	0.045	0.044	0.074	0.048	0.043
269.00	0.001	0.087	0.087	0.044	0.047	0.051	0.047	0.050	0.086	0.087	0.042	0.045	0.043	0.073	0.047	0.043
270.00	0.001	0.086	0.086	0.044	0.046	0.050	0.046	0.050	0.085	0.086	0.042	0.044	0.042	0.072	0.047	0.042
271.00	0.001	0.085	0.085	0.043	0.045	0.050	0.045	0.049	0.084	0.085	0.041	0.043	0.042	0.072	0.046	0.041
272.00	0.001	0.084	0.084	0.042	0.044	0.049	0.045	0.048	0.083	0.084	0.040	0.043	0.041	0.071	0.045	0.040
273.00	0.001	0.083	0.083	0.042	0.044	0.048	0.044	0.048	0.083	0.083	0.040	0.042	0.040	0.070	0.045	0.040
274.00	0.001	0.083	0.082	0.041	0.043	0.048	0.043	0.047	0.082	0.082	0.039	0.042	0.040	0.069	0.044	0.039
275.00	0.001	0.082	0.081	0.040	0.042	0.047	0.042	0.046	0.081	0.081	0.038	0.041	0.039	0.068	0.043	0.038
276.00	0.001	0.080	0.080	0.039	0.042	0.046	0.042	0.045	0.080	0.080	0.038	0.040	0.038	0.067	0.042	0.038
277.00	0.001	0.079	0.079	0.039	0.041	0.045	0.041	0.045	0.079	0.080	0.037	0.039	0.037	0.067	0.042	0.037
278.00	0.001	0.078	0.078	0.038	0.040	0.044	0.040	0.044	0.078	0.079	0.036	0.038	0.037	0.065	0.041	0.036
279.00	0.001	0.078	0.077	0.037	0.039	0.044	0.039	0.043	0.077	0.078	0.036	0.038	0.036	0.065	0.040	0.035
280.00	0.001	0.077	0.076	0.036	0.039	0.043	0.039	0.042	0.076	0.077	0.035	0.037	0.035	0.064	0.039	0.035
281.00	0.001	0.075	0.075	0.036	0.038	0.042	0.038	0.042	0.075	0.076	0.034	0.036	0.034	0.063	0.038	0.034
282.00	0.001	0.075	0.075	0.035	0.037	0.041	0.037	0.041	0.074	0.075	0.034	0.036	0.034	0.062	0.038	0.033
283.00	0.001	0.074	0.074	0.034	0.036	0.040	0.036	0.040	0.073	0.074	0.033	0.035	0.033	0.061	0.037	0.033
284.00	0.001	0.073	0.073	0.033	0.036	0.039	0.036	0.040	0.073	0.073	0.033	0.034	0.032	0.060	0.036	0.032
285.00	0.001	0.072	0.072	0.032	0.035	0.038	0.035	0.039	0.072	0.072	0.032	0.033	0.031	0.059	0.036	0.031
286.00	0.001	0.071	0.071	0.032	0.034	0.038	0.034	0.038	0.071	0.071	0.031	0.033	0.031	0.057	0.035	0.030
287.00	0.001	0.070	0.070	0.031	0.033	0.037	0.033	0.037	0.070	0.070	0.031	0.032	0.030	0.056	0.034	0.030
288.00	0.001	0.069	0.069	0.030	0.033	0.036	0.033	0.036	0.069	0.069	0.030	0.031	0.029	0.055	0.033	0.029
289.00	0.001	0.068	0.068	0.030	0.032	0.036	0.032	0.036	0.068	0.068	0.029	0.031	0.029	0.054	0.033	0.029
290.00	0.001	0.067	0.067	0.029	0.031	0.035	0.031	0.035	0.067	0.067	0.029	0.030	0.028	0.053	0.032	0.028
291.00	0.001	0.066	0.066	0.028	0.031	0.034	0.031	0.034	0.066	0.066	0.028	0.029	0.027	0.052	0.031	0.027
292.00	0.001	0.065	0.065	0.028	0.030	0.034	0.030	0.034	0.065	0.065	0.028	0.029	0.027	0.051	0.031	0.027
293.00	0.001	0.064	0.064	0.027	0.030	0.033	0.030	0.033	0.064	0.064	0.027	0.028	0.026	0.050	0.030	0.026
294.00	0.001	0.064	0.063	0.026	0.029	0.032	0.029	0.032	0.064	0.063	0.027	0.028	0.025	0.048	0.029	0.025
295.00	0.001	0.063	0.062	0.026	0.028	0.031	0.028	0.032	0.063	0.062	0.026	0.027	0.025	0.047	0.029	0.025
296.00	0.000	0.061	0.061	0.025	0.027	0.031	0.028	0.031	0.062	0.061	0.026	0.026	0.025	0.046	0.028	0.024
297.00	0.001	0.061	0.061	0.025	0.027	0.030	0.027	0.031	0.061	0.060	0.025	0.026	0.024	0.045	0.028	0.024
298.00	0.001	0.060	0.060	0.024	0.027	0.030	0.026	0.030	0.060	0.060	0.025	0.025	0.023	0.044	0.027	0.023
299.00	0.000	0.059	0.059	0.024	0.026	0.029	0.026	0.029	0.059	0.059	0.024	0.025	0.023	0.043	0.026	0.023
300.00	0.001	0.059	0.058	0.023	0.026	0.028	0.025	0.029	0.058	0.058	0.024	0.024	0.022	0.043	0.026	0.022
301.00	0.001	0.058	0.058	0.023	0.025	0.028	0.025	0.028	0.058	0.057	0.023	0.024	0.022	0.042	0.025	0.022
302.00	0.001	0.057	0.057	0.022	0.025	0.027	0.025	0.028	0.057	0.056	0.023	0.023	0.021	0.041	0.025	0.021
303.00	0.001	0.056	0.056	0.022	0.024	0.027	0.024	0.027	0.056	0.056	0.023	0.023	0.021	0.040	0.024	0.021
304.00	0.001	0.055	0.055	0.021	0.024	0.026	0.023	0.027	0.055	0.055	0.022	0.022	0.020	0.039	0.024	0.020
305.00	0.001	0.054	0.054	0.021	0.023	0.026	0.023	0.026	0.055	0.054	0.022	0.022	0.020	0.038	0.024	0.020
306.00	0.000	0.054	0.054	0.021	0.023	0.025	0.023	0.026	0.054	0.053	0.021	0.022	0.020	0.037	0.023	0.020
307.00	0.001	0.053	0.053	0.020	0.023	0.025	0.022	0.025	0.053	0.052	0.021	0.021	0.019	0.036	0.023	0.019
308.00	0.001	0.053	0.052	0.020	0.022	0.025	0.022	0.025	0.052	0.052	0.021	0.021	0.019	0.035	0.022	0.019
309.00	0.001	0.052	0.052	0.019	0.022	0.024	0.022	0.025	0.052	0.051	0.020	0.021	0.019	0.035	0.022	0.018
310.00	0.001	0.051	0.051	0.019	0.021	0.024	0.021	0.024	0.051	0.050	0.020	0.020	0.018	0.034	0.021	0.018
311.00	0.001	0.051	0.050	0.019	0.021	0.023	0.021	0.024	0.051	0.049	0.020	0.020	0.018	0.033	0.021	0.018
312.00	0.001	0.050	0.050	0.018	0.021	0.023	0.020	0.023	0.050	0.049	0.019	0.020	0.018	0.032	0.021	0.018
313.00	0.001	0.049	0.049	0.018	0.020	0.022	0.020	0.023	0.049	0.048	0.019	0.019	0.017	0.032	0.020	0.017
314.00	0.001	0.048	0.048	0.018	0.020	0.022	0.020	0.022	0.048	0.047	0.018	0.019	0.017	0.031	0.020	0.017
315.00	0.001	0.048	0.047	0.017	0.020	0.022	0.020	0.022	0.048	0.047	0.018	0.018	0.017	0.031	0.020	0.017
316.00	0.001	0.047	0.047	0.017	0.019	0.022	0.019	0.022	0.047	0.046	0.018	0.018	0.016	0.030	0.019	0.016
317.00	0.001	0.046	0.046	0.017	0.019	0.021	0.019	0.021	0.046	0.046	0.018	0.018	0.016	0.029	0.019	0.016
318.00	0.001	0.046	0.046	0.017	0.019	0.021	0.019	0.021	0.046	0.045	0.017	0.018	0.016	0.029	0.019	0.016
319.00	0.001	0.045	0.045	0.016	0.019	0.020	0.018	0.021	0.045	0.044	0.017	0.017	0.015	0.028	0.018	0.015
320.00	0.001	0.044	0.044	0.016	0.018	0.020	0.018	0.020	0.045	0.044	0.017	0.017	0.015	0.028	0.018	0.015
321.00	0.000	0.044	0.044	0.016	0.018	0.020	0.018	0.020	0.044	0.043	0.016	0.017	0.015	0.028	0.018	0.015
322.00	0.001	0.044	0.044	0.016	0.018	0.020	0.018	0.020	0.044	0.043	0.016	0.017	0.015	0.027	0.018	0.015
323.00	0.000	0.043	0.043	0.015	0.017	0.019	0.017	0.019	0.043	0.042	0.016	0.016	0.014	0.027	0.017	0.014
324.00	0.000	0.042	0.042	0.015	0.017	0.019	0.017	0.019	0.042	0.041	0.016	0.016	0.014	0.027	0.017	0.014
325.00	0.001	0.042	0.042	0.015	0.017	0.019	0.017	0.019	0.042	0.041	0.015	0.016	0.014	0.026	0.017	0.014
326.00	0.001	0.041	0.041	0.015	0.017	0.019	0.017	0.019	0.042	0.040	0.015	0.016	0.014	0.026	0.017	0.014
327.00	0.001	0.041	0.040	0.014	0.017	0.018	0.016	0.018	0.041	0.040	0.015	0.015	0.013	0.025	0.016	0.014
328.00	0.001	0.040	0.040	0.014	0.017	0.018	0.016	0.018	0.040	0.039	0.015	0.015	0.013	0.025	0.016	0.014
329.00	0.001	0.040	0.039	0.014	0.016	0.018	0.016	0.018	0.040	0.039	0.015	0.015	0.013	0.024	0.016	0.013
330.00	0.000	0.039	0.039	0.013	0.016	0.017	0.016	0.017	0.039	0.038	0.014	0.015	0.013	0.024	0.015	0.013
331.00	0.000	0.038	0.038	0.013	0.016	0.017	0.015	0.017	0.039	0.037	0.014	0.015	0.013	0.024	0.015	0.013
332.00	0.001	0.038	0.038	0.013	0.016	0.017	0.015	0.017	0.038	0.037	0.014	0.014	0.012	0.023	0.015	0.013
333.00	0.001	0.038	0.037	0.013	0.015	0.017	0.015	0.017	0.038	0.036	0.014	0.014	0.012	0.023	0.015	0.013
334.00	0.001	0.037	0.037	0.013	0.015	0.016	0.015	0.016	0.037	0.036	0.013	0.014	0.012	0.023	0.015	0.012
335.00	0.001	0.037	0.036	0.013	0.015	0.016	0.015	0.016	0.037	0.035	0.013	0.013	0.012	0.022	0.014	0.012
336.00	0.001	0.036	0.036	0.013	0.015	0.016	0.014	0.016	0.036	0.035	0.013	0.013	0.012	0.021	0.014	0.012
337.00	0.000	0.035	0.035	0.012	0.015	0.015	0.014	0.016	0.035	0.034	0.012	0.013	0.011	0.021	0.014	0.012
338.00	0.000	0.035	0.035	0.012	0.014	0.015	0.014	0.015	0.035	0.033	0.012	0.013	0.011	0.021	0.013	0.011
339.00	0.001	0.035	0.034	0.012	0.015	0.015	0.014	0.015	0.035	0.033	0.013	0.013	0.011	0.021	0.014	0.012
340.00	0.002	0.035	0.035	0.013	0.015	0.016	0.015	0.016	0.036	0.034	0.013	0.013	0.012	0.022	0.014	0.012
341.00	0.001	0.034	0.033	0.012	0.014	0.015	0.014	0.015	0.034	0.032	0.012	0.012	0.011	0.020	0.013	0.012
342.00	0.001	0.033	0.033	0.011	0.013	0.014	0.013	0.014	0.034	0.032	0.012	0.012	0.011	0.020	0.013	0.011
343.00	0.000	0.032	0.032	0.011	0.013	0.014	0.013	0.014	0.033	0.031	0.011	0.012	0.010	0.019	0.013	0.010
344.00	0.001	0.032	0.032	0.011	0.013	0.015	0.013	0.014	0.033	0.031	0.012	0.012	0.010	0.019	0.013	0.011
345.00	0.000	0.031	0.031	0.011	0.013	0.014	0.013	0.014	0.032	0.030	0.011	0.012	0.010	0.019	0.012	0.010
346.00	0.000	0.031	0.031	0.011	0.013	0.014	0.012	0.013	0.032	0.030	0.011	0.011	0.010	0.018	0.012	0.010
347.00	0.000	0.030	0.030	0.011	0.013	0.013	0.012	0.013	0.032	0.030	0.011	0.011	0.010	0.018	0.012	0.010
348.00	0.000	0.030	0.030	0.010	0.013	0.013	0.012	0.013	0.031	0.029	0.011	0.011	0.010	0.018	0.012	0.010
349.00	0.000	0.030	0.029	0.010	0.012	0.013	0.013	0.013	0.030	0.029	0.011	0.011	0.010	0.018	0.012	0.010
350.00	0.000	0.029	0.029	0.010	0.012	0.013	0.012	0.013	0.030	0.028	0.011	0.011	0.009	0.017	0.012	0.010
351.00	0.000	0.029	0.028	0.010	0.012	0.013	0.012	0.012	0.030	0.028	0.010	0.011	0.009	0.017	0.011	0.009
352.00	0.001	0.029	0.028	0.010	0.012	0.012	0.012	0.012	0.029	0.028	0.010	0.011	0.009	0.017	0.011	0.009
353.00	0.001	0.028	0.028	0.010	0.012	0.012	0.012	0.012	0.029	0.027	0.010	0.010	0.009	0.017	0.011	0.009
354.00	0.000	0.027	0.027	0.009	0.012	0.012	0.012	0.012	0.028	0.027	0.010	0.010	0.009	0.016	0.011	0.009
355.00	0.000	0.027	0.027	0.009	0.011	0.012	0.011	0.012	0.028	0.026	0.009	0.010	0.008	0.016	0.010	0.009
356.00	0.000	0.027	0.026	0.009	0.011	0.012	0.011	0.011	0.027	0.025	0.009	0.009	0.008	0.016	0.010	0.009
357.00	0.000	0.026	0.026	0.009	0.011	0.012	0.011	0.011	0.027	0.025	0.009	0.009	0.009	0.015	0.010	0.008
358.00	0.000	0.026	0.025	0.009	0.011	0.011	0.010	0.011	0.027	0.025	0.009	0.009	0.008	0.015	0.010	0.009
359.00	0.000	0.025	0.025	0.008	0.011	0.011	0.010	0.011	0.026	0.024	0.009	0.009	0.008	0.015	0.010	0.008
360.00	0.000	0.025	0.025	0.008	0.011	0.011	0.010	0.011	0.026	0.024	0.009	0.009	0.008	0.015	0.010	0.008
361.00	0.000	0.025	0.024	0.008	0.011	0.011	0.010	0.011	0.026	0.024	0.009	0.009	0.008	0.015	0.010	0.008
362.00	0.001	0.024	0.024	0.008	0.010	0.011	0.010	0.011	0.025	0.023	0.009	0.009	0.008	0.015	0.010	0.008
363.00	0.000	0.024	0.023	0.008	0.010	0.010	0.010	0.010	0.025	0.023	0.008	0.009	0.007	0.014	0.010	0.008
364.00	0.001	0.024	0.023	0.008	0.010	0.010	0.010	0.010	0.025	0.023	0.008	0.008	0.008	0.014	0.010	0.008
365.00	0.000	0.023	0.023	0.008	0.010	0.010	0.010	0.010	0.024	0.022	0.008	0.008	0.007	0.014	0.009	0.008
366.00	0.000	0.023	0.023	0.008	0.010	0.010	0.010	0.010	0.024	0.022	0.008	0.008	0.007	0.014	0.009	0.008
367.00	0.000	0.023	0.022	0.008	0.010	0.010	0.010	0.010	0.024	0.022	0.008	0.008	0.007	0.013	0.009	0.008
368.00	0.000	0.022	0.022	0.008	0.010	0.010	0.009	0.009	0.023	0.021	0.008	0.008	0.007	0.013	0.009	0.007
369.00	0.000	0.022	0.022	0.007	0.010	0.010	0.009	0.010	0.023	0.021	0.008	0.008	0.007	0.013	0.009	0.007
370.00	0.000	0.022	0.021	0.007	0.009	0.009	0.009	0.009	0.022	0.020	0.007	0.008	0.006	0.013	0.009	0.007
371.00	0.000	0.021	0.021	0.007	0.010	0.009	0.009	0.009	0.022	0.020	0.007	0.008	0.006	0.012	0.008	0.007
372.00	0.000	0.021	0.021	0.007	0.009	0.009	0.009	0.009	0.022	0.020	0.007	0.008	0.006	0.012	0.008	0.007
373.00	0.000	0.021	0.020	0.007	0.009	0.009	0.009	0.009	0.022	0.020	0.007	0.008	0.006	0.012	0.008	0.007
374.00	0.000	0.021	0.020	0.007	0.009	0.009	0.009	0.009	0.021	0.019	0.007	0.008	0.006	0.012	0.008	0.007
375.00	0.000	0.020	0.020	0.007	0.009	0.009	0.009	0.009	0.021	0.019	0.007	0.007	0.006	0.012	0.008	0.007
376.00	0.000	0.020	0.020	0.007	0.009	0.009	0.008	0.008	0.021	0.019	0.007	0.007	0.006	0.012	0.008	0.006
377.00	0.000	0.020	0.019	0.007	0.009	0.009	0.009	0.008	0.021	0.019	0.007	0.007	0.006	0.012	0.008	0.007
378.00	0.000	0.019	0.019	0.006	0.009	0.009	0.009	0.008	0.020	0.018	0.007	0.007	0.006	0.012	0.008	0.007
379.00	0.000	0.019	0.019	0.006	0.009	0.008	0.008	0.008	0.020	0.018	0.007	0.007	0.006	0.011	0.008	0.006
380.00	0.000	0.019	0.019	0.006	0.008	0.008	0.008	0.008	0.020	0.018	0.006	0.007	0.006	0.011	0.008	0.006
381.00	0.000	0.019	0.019	0.006	0.008	0.008	0.008	0.008	0.019	0.017	0.006	0.007	0.006	0.011	0.007	0.006
382.00	0.000	0.018	0.018	0.006	0.008	0.008	0.008	0.008	0.019	0.017	0.006	0.007	0.005	0.011	0.008	0.006
383.00	0.000	0.018	0.018	0.006	0.008	0.008	0.008	0.007	0.019	0.017	0.006	0.007	0.005	0.011	0.007	0.006
384.00	0.000	0.018	0.018	0.006	0.008	0.008	0.008	0.007	0.018	0.016	0.006	0.006	0.006	0.010	0.007	0.006
385.00	0.000	0.018	0.017	0.006	0.008	0.008	0.008	0.007	0.018	0.016	0.006	0.006	0.005	0.010	0.007	0.006
386.00	0.000	0.017	0.017	0.006	0.008	0.008	0.008	0.007	0.018	0.016	0.006	0.006	0.005	0.010	0.007	0.006
387.00	0.000	0.017	0.017	0.006	0.008	0.008	0.008	0.007	0.018	0.016	0.006	0.006	0.005	0.010	0.007	0.006
388.00	0.000	0.017	0.017	0.006	0.008	0.008	0.008	0.007	0.017	0.016	0.006	0.006	0.005	0.010	0.007	0.006
389.00	0.000	0.017	0.016	0.005	0.008	0.007	0.007	0.007	0.017	0.015	0.006	0.006	0.005	0.010	0.007	0.006
390.00	0.000	0.016	0.016	0.005	0.008	0.007	0.007	0.007	0.017	0.015	0.005	0.006	0.005	0.009	0.007	0.005
391.00	0.000	0.016	0.016	0.005	0.007	0.007	0.007	0.007	0.017	0.015	0.005	0.006	0.005	0.009	0.007	0.005
392.00	0.000	0.016	0.016	0.005	0.007	0.007	0.007	0.007	0.017	0.015	0.005	0.006	0.005	0.009	0.006	0.005
393.00	0.000	0.016	0.015	0.005	0.007	0.007	0.007	0.006	0.016	0.014	0.005	0.005	0.005	0.009	0.006	0.005
394.00	0.000	0.015	0.015	0.005	0.007	0.007	0.007	0.006	0.016	0.014	0.005	0.005	0.005	0.009	0.006	0.005
395.00	0.000	0.015	0.015	0.005	0.007	0.007	0.007	0.006	0.016	0.014	0.005	0.005	0.005	0.009	0.006	0.005
396.00	0.000	0.015	0.015	0.005	0.007	0.007	0.007	0.006	0.016	0.014	0.005	0.005	0.005	0.009	0.006	0.005
397.00	0.000	0.015	0.015	0.005	0.007	0.006	0.007	0.006	0.015	0.013	0.005	0.005	0.004	0.009	0.006	0.005
398.00	0.000	0.015	0.014	0.005	0.007	0.006	0.007	0.006	0.015	0.013	0.005	0.005	0.004	0.008	0.006	0.005
399.00	0.000	0.014	0.014	0.005	0.007	0.006	0.007	0.006	0.015	0.013	0.005	0.005	0.004	0.008	0.006	0.005
400.00	0.000	0.014	0.014	0.005	0.007	0.006	0.006	0.006	0.015	0.013	0.005	0.005	0.004	0.008	0.006	0.005
401.00	0.000	0.014	0.014	0.005	0.007	0.006	0.006	0.006	0.015	0.013	0.005	0.005	0.004	0.008	0.006	0.005
402.00	0.000	0.014	0.014	0.005	0.007	0.006	0.006	0.006	0.015	0.013	0.005	0.005	0.004	0.008	0.006	0.005
403.00	0.000	0.014	0.014	0.005	0.007	0.006	0.006	0.006	0.014	0.012	0.004	0.005	0.004	0.008	0.006	0.005
404.00	0.000	0.014	0.013	0.005	0.007	0.006	0.006	0.006	0.014	0.012	0.004	0.005	0.004	0.008	0.006	0.005
405.00	0.000	0.013	0.013	0.004	0.007	0.006	0.006	0.005	0.014	0.012	0.004	0.005	0.004	0.008	0.006	0.005
406.00	0.000	0.013	0.013	0.004	0.007	0.006	0.006	0.006	0.014	0.012	0.004	0.005	0.004	0.008	0.006	0.005
407.00	0.000	0.013	0.013	0.004	0.007	0.006	0.006	0.005	0.014	0.012	0.004	0.005	0.004	0.007	0.006	0.005
408.00	0.000	0.013	0.013	0.004	0.007	0.006	0.006	0.005	0.014	0.012	0.004	0.004	0.004	0.007	0.005	0.004
409.00	0.000	0.013	0.013	0.004	0.007	0.006	0.006	0.005	0.013	0.012	0.004	0.004	0.004	0.007	0.005	0.004
410.00	0.000	0.013	0.012	0.004	0.006	0.005	0.006	0.005	0.013	0.011	0.004	0.004	0.004	0.007	0.005	0.004
411.00	0.000	0.012	0.012	0.004	0.006	0.006	0.006	0.005	0.013	0.011	0.004	0.004	0.004	0.007	0.005	0.004
412.00	0.000	0.012	0.012	0.004	0.006	0.005	0.006	0.005	0.013	0.011	0.004	0.004	0.004	0.007	0.005	0.004
413.00	0.000	0.012	0.012	0.004	0.006	0.005	0.006	0.005	0.013	0.011	0.004	0.004	0.003	0.007	0.005	0.004
414.00	0.000	0.012	0.012	0.004	0.006	0.005	0.006	0.005	0.013	0.011	0.004	0.004	0.003	0.007	0.005	0.004
415.00	0.000	0.012	0.012	0.004	0.006	0.005	0.006	0.005	0.013	0.011	0.004	0.004	0.003	0.007	0.005	0.004
416.00	0.000	0.012	0.012	0.004	0.006	0.005	0.006	0.005	0.012	0.011	0.004	0.004	0.003	0.007	0.005	0.004
417.00	0.000	0.012	0.011	0.004	0.006	0.005	0.005	0.005	0.012	0.010	0.004	0.004	0.003	0.007	0.005	0.004
418.00	0.000	0.011	0.011	0.004	0.006	0.005	0.005	0.005	0.012	0.010	0.004	0.004	0.003	0.007	0.005	0.004
419.00	0.000	0.011	0.011	0.004	0.006	0.005	0.006	0.005	0.012	0.010	0.004	0.004	0.003	0.007	0.005	0.004
420.00	0.000	0.011	0.011	0.004	0.006	0.005	0.005	0.005	0.012	0.010	0.004	0.004	0.003	0.006	0.005	0.004
421.00	0.000	0.011	0.011	0.004	0.006	0.005	0.005	0.005	0.012	0.010	0.004	0.004	0.003	0.006	0.005	0.004
422.00	0.000	0.011	0.011	0.004	0.006	0.005	0.005	0.005	0.012	0.010	0.004	0.004	0.003	0.006	0.005	0.004
423.00	0.000	0.011	0.011	0.003	0.006	0.005	0.005	0.005	0.012	0.010	0.004	0.004	0.003	0.006	0.005	0.004
424.00	0.000	0.011	0.011	0.003	0.006	0.005	0.005	0.004	0.012	0.010	0.004	0.004	0.003	0.006	0.005	0.004
425.00	0.000	0.011	0.011	0.003	0.006	0.005	0.005	0.004	0.012	0.009	0.004	0.004	0.003	0.006	0.005	0.004
426.00	0.000	0.011	0.010	0.003	0.006	0.005	0.005	0.004	0.011	0.009	0.004	0.004	0.003	0.006	0.005	0.004
427.00	0.000	0.010	0.010	0.003	0.006	0.005	0.005	0.004	0.011	0.009	0.003	0.004	0.003	0.006	0.004	0.004
428.00	0.000	0.010	0.010	0.003	0.006	0.005	0.005	0.004	0.011	0.009	0.003	0.003	0.003	0.006	0.004	0.003
429.00	0.000	0.010	0.010	0.003	0.006	0.004	0.005	0.004	0.011	0.009	0.003	0.003	0.003	0.006	0.004	0.003
430.00	0.000	0.010	0.010	0.003	0.006	0.004	0.005	0.004	0.011	0.009	0.003	0.003	0.003	0.006	0.004	0.004
431.00	0.000	0.010	0.010	0.003	0.006	0.004	0.005	0.004	0.011	0.009	0.003	0.003	0.003	0.006	0.004	0.004
432.00	0.000	0.010	0.010	0.003	0.006	0.004	0.005	0.004	0.011	0.008	0.003	0.003	0.003	0.005	0.004	0.003
433.00	0.000	0.010	0.010	0.003	0.006	0.004	0.005	0.004	0.010	0.008	0.003	0.003	0.003	0.005	0.004	0.003
434.00	0.000	0.010	0.010	0.003	0.005	0.004	0.005	0.004	0.010	0.008	0.003	0.003	0.003	0.005	0.004	0.003
435.00	0.000	0.009	0.009	0.003	0.005	0.004	0.005	0.004	0.010	0.008	0.003	0.003	0.003	0.005	0.004	0.003
436.00	0.000	0.009	0.009	0.003	0.005	0.004	0.005	0.004	0.010	0.008	0.003	0.003	0.003	0.005	0.004	0.003
437.00	0.000	0.009	0.009	0.003	0.005	0.004	0.004	0.004	0.010	0.008	0.003	0.003	0.003	0.005	0.004	0.003
438.00	0.000	0.009	0.009	0.003	0.005	0.004	0.005	0.004	0.010	0.008	0.003	0.003	0.003	0.005	0.004	0.003
439.00	0.000	0.009	0.009	0.003	0.005	0.004	0.004	0.004	0.010	0.008	0.003	0.003	0.003	0.005	0.004	0.003
440.00	0.000	0.009	0.009	0.003	0.005	0.004	0.004	0.004	0.010	0.008	0.003	0.003	0.002	0.005	0.004	0.003
441.00	0.000	0.009	0.009	0.003	0.005	0.004	0.004	0.004	0.010	0.008	0.003	0.003	0.002	0.005	0.004	0.003
442.00	0.000	0.009	0.009	0.003	0.005	0.004	0.004	0.004	0.009	0.007	0.003	0.003	0.002	0.005	0.004	0.003
443.00	0.000	0.009	0.008	0.003	0.005	0.004	0.004	0.004	0.009	0.007	0.003	0.003	0.002	0.005	0.004	0.003
444.00	0.000	0.009	0.008	0.003	0.005	0.004	0.004	0.004	0.009	0.007	0.003	0.003	0.002	0.005	0.004	0.003
445.00	0.000	0.008	0.008	0.003	0.005	0.004	0.004	0.003	0.009	0.007	0.003	0.003	0.002	0.005	0.004	0.003
446.00	-0.000	0.008	0.008	0.003	0.005	0.003	0.004	0.003	0.009	0.007	0.003	0.003	0.002	0.004	0.003	0.003
447.00	0.000	0.008	0.008	0.003	0.005	0.003	0.004	0.003	0.009	0.007	0.003	0.003	0.002	0.004	0.004	0.003
448.00	0.000	0.008	0.008	0.002	0.005	0.003	0.004	0.003	0.009	0.007	0.003	0.003	0.002	0.004	0.003	0.003
449.00	0.000	0.008	0.008	0.003	0.005	0.003	0.004	0.003	0.009	0.007	0.003	0.003	0.002	0.004	0.004	0.003
450.00	0.000	0.008	0.008	0.003	0.005	0.003	0.004	0.003	0.009	0.007	0.003	0.003	0.002	0.004	0.004	0.003
451.00	0.000	0.008	0.008	0.003	0.005	0.003	0.004	0.003	0.009	0.007	0.003	0.003	0.002	0.004	0.004	0.003
452.00	0.000	0.008	0.008	0.002	0.005	0.003	0.004	0.003	0.009	0.007	0.003	0.003	0.002	0.004	0.003	0.003
453.00	0.000	0.008	0.008	0.002	0.005	0.003	0.004	0.003	0.008	0.006	0.002	0.002	0.002	0.004	0.003	0.003
454.00	0.000	0.008	0.008	0.002	0.005	0.003	0.004	0.003	0.008	0.006	0.002	0.002	0.002	0.004	0.003	0.003
455.00	0.000	0.008	0.008	0.002	0.005	0.003	0.004	0.003	0.008	0.006	0.002	0.003	0.002	0.004	0.003	0.003
456.00	0.000	0.008	0.008	0.002	0.005	0.003	0.004	0.003	0.008	0.006	0.002	0.003	0.002	0.004	0.003	0.003
457.00	0.000	0.008	0.008	0.002	0.005	0.003	0.004	0.003	0.008	0.006	0.002	0.003	0.002	0.004	0.003	0.003
458.00	0.000	0.008	0.007	0.002	0.004	0.003	0.004	0.003	0.008	0.006	0.002	0.002	0.002	0.004	0.003	0.003
459.00	0.000	0.008	0.007	0.002	0.005	0.003	0.004	0.003	0.008	0.006	0.002	0.002	0.002	0.004	0.003	0.002
460.00	0.000	0.007	0.007	0.002	0.005	0.003	0.004	0.003	0.008	0.006	0.002	0.002	0.002	0.004	0.003	0.003
461.00	0.000	0.007	0.007	0.002	0.005	0.003	0.004	0.003	0.008	0.006	0.002	0.002	0.002	0.004	0.003	0.003
462.00	0.000	0.007	0.007	0.002	0.004	0.003	0.004	0.003	0.008	0.006	0.002	0.002	0.002	0.004	0.003	0.003
463.00	0.000	0.007	0.007	0.002	0.004	0.003	0.004	0.003	0.008	0.006	0.002	0.002	0.002	0.004	0.003	0.003
464.00	0.000	0.007	0.007	0.002	0.004	0.003	0.004	0.003	0.008	0.006	0.002	0.002	0.002	0.004	0.003	0.003
465.00	0.000	0.007	0.007	0.002	0.004	0.003	0.004	0.003	0.008	0.006	0.002	0.002	0.002	0.004	0.003	0.002
466.00	0.000	0.007	0.007	0.002	0.004	0.003	0.004	0.003	0.008	0.006	0.002	0.002	0.002	0.004	0.003	0.002
467.00	0.000	0.007	0.007	0.002	0.004	0.003	0.004	0.003	0.008	0.006	0.002	0.002	0.002	0.004	0.003	0.002
468.00	0.000	0.007	0.007	0.002	0.004	0.003	0.004	0.003	0.008	0.005	0.002	0.002	0.002	0.004	0.003	0.002
469.00	0.000	0.007	0.007	0.002	0.004	0.003	0.004	0.003	0.008	0.005	0.002	0.002	0.002	0.004	0.003	0.002
470.00	0.000	0.007	0.007	0.002	0.004	0.003	0.004	0.003	0.008	0.005	0.002	0.002	0.002	0.003	0.003	0.002
471.00	0.000	0.007	0.007	0.002	0.004	0.003	0.004	0.003	0.007	0.005	0.002	0.002	0.002	0.003	0.003	0.002
472.00	0.000	0.007	0.007	0.002	0.004	0.003	0.003	0.003	0.007	0.005	0.002	0.002	0.002	0.003	0.003	0.002
473.00	0.000	0.007	0.007	0.002	0.004	0.003	0.004	0.003	0.007	0.005	0.002	0.002	0.002	0.003	0.003	0.002
474.00	0.000	0.007	0.006	0.002	0.004	0.003	0.003	0.003	0.007	0.005	0.002	0.002	0.002	0.003	0.003	0.002
475.00	0.000	0.007	0.006	0.002	0.004	0.003	0.003	0.003	0.007	0.005	0.002	0.002	0.002	0.003	0.003	0.002
476.00	0.000	0.007	0.006	0.002	0.004	0.003	0.003	0.003	0.007	0.005	0.002	0.002	0.002	0.003	0.003	0.002
477.00	0.000	0.006	0.006	0.002	0.004	0.003	0.003	0.003	0.007	0.005	0.002	0.002	0.002	0.003	0.003	0.002
478.00	0.000	0.006	0.006	0.002	0.004	0.003	0.003	0.002	0.007	0.005	0.002	0.002	0.001	0.003	0.003	0.002
479.00	-0.000	0.006	0.006	0.002	0.004	0.003	0.003	0.002	0.007	0.005	0.002	0.002	0.001	0.003	0.003	0.002
480.00	0.000	0.006	0.006	0.002	0.004	0.003	0.003	0.002	0.007	0.005	0.002	0.002	0.002	0.003	0.003	0.002
481.00	-0.000	0.006	0.006	0.002	0.004	0.003	0.003	0.002	0.007	0.004	0.002	0.002	0.002	0.003	0.003	0.002
482.00	0.000	0.006	0.006	0.002	0.004	0.003	0.003	0.002	0.007	0.004	0.002	0.002	0.002	0.003	0.003	0.002
483.00	-0.000	0.006	0.006	0.002	0.004	0.002	0.003	0.002	0.007	0.004	0.002	0.002	0.002	0.003	0.003	0.002
484.00	-0.000	0.006	0.006	0.002	0.004	0.002	0.003	0.002	0.007	0.004	0.002	0.002	0.001	0.003	0.003	0.002
485.00	-0.000	0.006	0.006	0.002	0.004	0.002	0.003	0.002	0.007	0.004	0.002	0.002	0.001	0.003	0.003	0.002
486.00	-0.000	0.006	0.006	0.002	0.004	0.002	0.003	0.002	0.007	0.004	0.002	0.002	0.002	0.003	0.003	0.002
487.00	-0.000	0.006	0.006	0.002	0.004	0.002	0.003	0.002	0.007	0.004	0.002	0.002	0.001	0.003	0.002	0.002
488.00	-0.000	0.006	0.006	0.002	0.004	0.002	0.003	0.002	0.007	0.004	0.001	0.002	0.001	0.003	0.002	0.002
489.00	-0.000	0.006	0.006	0.002	0.004	0.002	0.003	0.002	0.006	0.004	0.001	0.001	0.001	0.003	0.002	0.002
490.00	-0.000	0.006	0.006	0.002	0.004	0.002	0.003	0.002	0.006	0.004	0.001	0.002	0.001	0.003	0.002	0.002
491.00	-0.000	0.006	0.005	0.002	0.004	0.002	0.003	0.002	0.006	0.004	0.001	0.001	0.001	0.003	0.002	0.002
492.00	-0.000	0.006	0.006	0.002	0.004	0.002	0.003	0.002	0.006	0.004	0.001	0.002	0.001	0.003	0.003	0.002
493.00	-0.000	0.006	0.006	0.002	0.004	0.002	0.003	0.002	0.006	0.004	0.002	0.002	0.001	0.003	0.002	0.002
494.00	0.000	0.006	0.006	0.002	0.004	0.002	0.003	0.002	0.006	0.004	0.002	0.002	0.001	0.003	0.002	0.002
495.00	0.000	0.006	0.006	0.002	0.004	0.002	0.003	0.002	0.006	0.004	0.002	0.002	0.001	0.003	0.002	0.002
496.00	0.000	0.006	0.005	0.002	0.004	0.002	0.003	0.002	0.006	0.004	0.002	0.002	0.001	0.003	0.002	0.002
497.00	0.000	0.006	0.006	0.002	0.004	0.002	0.003	0.002	0.006	0.004	0.002	0.002	0.001	0.003	0.002	0.002
498.00	0.000	0.006	0.005	0.002	0.004	0.002	0.003	0.002	0.006	0.004	0.002	0.002	0.001	0.003	0.002	0.002
499.00	0.000	0.005	0.005	0.002	0.004	0.002	0.003	0.002	0.006	0.004	0.002	0.002	0.001	0.003	0.002	0.002
500.00	0.000	0.005	0.005	0.002	0.004	0.002	0.003	0.002	0.006	0.004	0.002	0.002	0.001	0.003	0.003	0.002
501.00	0.000	0.006	0.005	0.002	0.004	0.002	0.003	0.002	0.006	0.004	0.002	0.002	0.001	0.003	0.003	0.002
502.00	0.000	0.005	0.005	0.002	0.004	0.002	0.003	0.002	0.006	0.004	0.002	0.002	0.001	0.003	0.003	0.002
503.00	0.000	0.005	0.005	0.002	0.004	0.002	0.003	0.002	0.006	0.004	0.002	0.002	0.001	0.003	0.002	0.002
504.00	0.000	0.005	0.005	0.002	0.004	0.002	0.003	0.002	0.006	0.004	0.002	0.002	0.001	0.003	0.002	0.002
505.00	0.000	0.005	0.005	0.002	0.004	0.002	0.003	0.002	0.006	0.004	0.002	0.002	0.001	0.003	0.002	0.002
506.00	0.000	0.005	0.005	0.002	0.004	0.002	0.003	0.002	0.006	0.004	0.002	0.002	0.001	0.003	0.002	0.002
507.00	0.000	0.005	0.005	0.002	0.004	0.002	0.003	0.002	0.006	0.004	0.002	0.002	0.001	0.003	0.002	0.002
508.00	0.000	0.005	0.005	0.002	0.004	0.002	0.003	0.002	0.006	0.004	0.002	0.002	0.001	0.003	0.002	0.002
509.00	0.000	0.005	0.005	0.001	0.004	0.002	0.003	0.002	0.006	0.004	0.002	0.002	0.001	0.003	0.002	0.002
510.00	-0.000	0.005	0.005	0.001	0.003	0.002	0.003	0.002	0.006	0.004	0.002	0.002	0.001	0.003	0.002	0.002
511.00	0.000	0.005	0.005	0.002	0.004	0.002	0.003	0.002	0.006	0.003	0.002	0.002	0.001	0.003	0.002	0.002
512.00	0.000	0.005	0.005	0.002	0.004	0.002	0.003	0.002	0.006	0.004	0.002	0.002	0.001	0.003	0.002	0.002
513.00	0.000	0.005	0.005	0.001	0.003	0.002	0.003	0.002	0.006	0.003	0.002	0.002	0.001	0.003	0.002	0.002
514.00	0.000	0.005	0.005	0.001	0.003	0.002	0.003	0.002	0.006	0.003	0.002	0.002	0.001	0.003	0.002	0.002
515.00	0.000	0.005	0.005	0.001	0.003	0.002	0.003	0.002	0.006	0.003	0.001	0.001	0.001	0.002	0.002	0.002
516.00	0.000	0.005	0.005	0.001	0.003	0.002	0.003	0.002	0.006	0.003	0.002	0.002	0.001	0.003	0.002	0.002
517.00	0.000	0.005	0.005	0.001	0.003	0.002	0.003	0.002	0.006	0.003	0.001	0.001	0.001	0.002	0.002	0.002
518.00	0.000	0.005	0.005	0.001	0.003	0.002	0.003	0.002	0.006	0.003	0.001	0.001	0.001	0.002	0.002	0.002
519.00	0.000	0.005	0.005	0.001	0.003	0.002	0.003	0.002	0.006	0.003	0.001	0.001	0.001	0.002	0.002	0.002
520.00	0.000	0.005	0.005	0.001	0.003	0.002	0.003	0.002	0.006	0.003	0.001	0.001	0.001	0.002	0.002	0.002
521.00	0.000	0.005	0.005	0.001	0.003	0.002	0.003	0.002	0.006	0.003	0.001	0.001	0.001	0.002	0.002	0.002
522.00	0.000	0.005	0.005	0.001	0.003	0.002	0.003	0.002	0.005	0.003	0.001	0.001	0.001	0.002	0.002	0.002
523.00	0.000	0.005	0.005	0.001	0.003	0.002	0.003	0.002	0.005	0.003	0.001	0.001	0.001	0.002	0.002	0.002
524.00	-0.000	0.005	0.005	0.001	0.003	0.002	0.003	0.002	0.005	0.003	0.001	0.001	0.001	0.002	0.002	0.002
525.00	0.000	0.005	0.005	0.001	0.003	0.002	0.003	0.002	0.005	0.003	0.001	0.001	0.001	0.002	0.002	0.002
526.00	0.000	0.005	0.005	0.001	0.003	0.002	0.003	0.002	0.005	0.003	0.001	0.001	0.001	0.002	0.002	0.002
527.00	0.000	0.005	0.005	0.001	0.003	0.002	0.003	0.002	0.005	0.003	0.001	0.001	0.001	0.002	0.002	0.002
528.00	0.000	0.005	0.005	0.001	0.003	0.002	0.003	0.002	0.005	0.003	0.001	0.001	0.001	0.002	0.002	0.002
529.00	-0.000	0.005	0.005	0.001	0.003	0.002	0.003	0.002	0.005	0.003	0.001	0.001	0.001	0.002	0.002	0.002
530.00	-0.000	0.004	0.004	0.001	0.003	0.002	0.002	0.002	0.005	0.003	0.001	0.001	0.001	0.002	0.002	0.002
531.00	-0.000	0.004	0.004	0.001	0.003	0.002	0.002	0.002	0.005	0.003	0.001	0.001	0.001	0.002	0.002	0.002
532.00	-0.000	0.004	0.004	0.001	0.003	0.002	0.002	0.002	0.005	0.003	0.001	0.001	0.001	0.002	0.002	0.001
533.00	-0.000	0.004	0.004	0.001	0.003	0.002	0.003	0.002	0.005	0.003	0.001	0.001	0.001	0.002	0.002	0.002
534.00	0.000	0.004	0.004	0.001	0.003	0.002	0.003	0.002	0.005	0.003	0.001	0.001	0.001	0.002	0.002	0.002
535.00	0.000	0.005	0.005	0.002	0.003	0.002	0.003	0.002	0.005	0.003	0.001	0.001	0.001	0.002	0.002	0.002
536.00	0.001	0.005	0.005	0.002	0.004	0.003	0.004	0.003	0.006	0.004	0.002	0.002	0.002	0.003	0.003	0.003
537.00	0.000	0.004	0.004	0.001	0.003	0.002	0.003	0.002	0.005	0.003	0.001	0.001	0.001	0.002	0.002	0.002
538.00	-0.000	0.004	0.004	0.001	0.003	0.002	0.002	0.002	0.005	0.003	0.001	0.001	0.001	0.002	0.002	0.002
539.00	-0.000	0.004	0.004	0.001	0.003	0.001	0.002	0.002	0.005	0.003	0.001	0.001	0.001	0.002	0.002	0.002
540.00	0.000	0.004	0.004	0.001	0.003	0.002	0.002	0.002	0.005	0.003	0.001	0.001	0.001	0.002	0.002	0.002
541.00	-0.000	0.004	0.004	0.001	0.003	0.002	0.002	0.002	0.005	0.003	0.001	0.001	0.001	0.002	0.002	0.002
542.00	-0.000	0.004	0.004	0.001	0.003	0.002	0.002	0.002	0.005	0.003	0.001	0.001	0.001	0.002	0.002	0.002
543.00	-0.000	0.004	0.004	0.001	0.003	0.002	0.002	0.002	0.005	0.003	0.001	0.001	0.001	0.002	0.002	0.002
544.00	-0.000	0.004	0.004	0.001	0.003	0.002	0.002	0.002	0.005	0.003	0.001	0.001	0.001	0.002	0.002	0.002
545.00	-0.000	0.004	0.004	0.001	0.003	0.001	0.002	0.002	0.005	0.003	0.001	0.001	0.001	0.002	0.002	0.002
546.00	-0.000	0.004	0.004	0.001	0.003	0.001	0.002	0.002	0.005	0.002	0.001	0.001	0.001	0.002	0.002	0.001
547.00	-0.000	0.004	0.004	0.001	0.003	0.001	0.002	0.002	0.005	0.002	0.001	0.001	0.001	0.002	0.002	0.001
548.00	-0.000	0.004	0.004	0.001	0.003	0.001	0.002	0.002	0.005	0.002	0.001	0.001	0.001	0.002	0.002	0.001
549.00	-0.000	0.004	0.004	0.001	0.003	0.001	0.002	0.002	0.005	0.002	0.001	0.001	0.001	0.002	0.002	0.001
550.00	-0.000	0.004	0.004	0.001	0.003	0.001	0.002	0.002	0.005	0.002	0.001	0.001	0.001	0.002	0.002	0.001
551.00	0.000	0.004	0.004	0.001	0.003	0.001	0.002	0.002	0.005	0.002	0.001	0.001	0.001	0.002	0.002	0.001
552.00	0.000	0.004	0.004	0.001	0.003	0.002	0.002	0.002	0.005	0.002	0.001	0.001	0.001	0.002	0.002	0.001
553.00	0.000	0.004	0.004	0.001	0.003	0.001	0.002	0.002	0.004	0.002	0.001	0.001	0.001	0.002	0.002	0.001
554.00	-0.000	0.004	0.004	0.001	0.003	0.001	0.002	0.002	0.004	0.002	0.001	0.001	0.001	0.002	0.002	0.001
555.00	-0.000	0.004	0.004	0.001	0.003	0.001	0.002	0.002	0.004	0.002	0.001	0.001	0.001	0.002	0.002	0.001
556.00	-0.000	0.004	0.004	0.001	0.003	0.001	0.002	0.002	0.004	0.002	0.001	0.001	0.001	0.002	0.002	0.001
557.00	-0.000	0.004	0.004	0.001	0.003	0.001	0.002	0.002	0.004	0.002	0.001	0.001	0.001	0.002	0.002	0.001
558.00	0.000	0.004	0.004	0.001	0.003	0.001	0.002	0.002	0.004	0.002	0.001	0.001	0.001	0.002	0.002	0.001
559.00	0.000	0.004	0.004	0.001	0.003	0.001	0.002	0.002	0.004	0.002	0.001	0.001	0.001	0.002	0.002	0.001
560.00	-0.000	0.004	0.004	0.001	0.003	0.001	0.002	0.001	0.004	0.002	0.001	0.001	0.001	0.002	0.002	0.001
561.00	-0.000	0.004	0.004	0.001	0.003	0.001	0.002	0.001	0.004	0.002	0.001	0.001	0.001	0.002	0.002	0.001
562.00	0.000	0.004	0.004	0.001	0.003	0.001	0.002	0.002	0.004	0.002	0.001	0.001	0.001	0.002	0.002	0.001
563.00	0.000	0.004	0.004	0.001	0.003	0.001	0.002	0.002	0.004	0.002	0.001	0.001	0.001	0.002	0.002	0.001
564.00	-0.000	0.004	0.004	0.001	0.003	0.001	0.002	0.001	0.004	0.002	0.001	0.001	0.001	0.002	0.002	0.001
565.00	0.000	0.004	0.004	0.001	0.003	0.001	0.002	0.001	0.004	0.002	0.001	0.001	0.001	0.002	0.002	0.001
566.00	0.000	0.004	0.004	0.001	0.003	0.001	0.002	0.002	0.004	0.002	0.001	0.001	0.001	0.002	0.002	0.001
567.00	0.000	0.004	0.004	0.001	0.003	0.001	0.002	0.001	0.004	0.002	0.001	0.001	0.001	0.002	0.002	0.001
568.00	0.000	0.004	0.004	0.001	0.003	0.001	0.002	0.001	0.004	0.002	0.001	0.001	0.001	0.002	0.002	0.001
569.00	-0.000	0.004	0.004	0.001	0.003	0.001	0.002	0.001	0.004	0.002	0.001	0.001	0.001	0.002	0.002	0.001
570.00	0.000	0.004	0.004	0.001	0.003	0.001	0.002	0.001	0.004	0.002	0.001	0.001	0.001	0.002	0.002	0.001
571.00	0.000	0.004	0.004	0.001	0.003	0.001	0.002	0.001	0.004	0.002	0.001	0.001	0.001	0.002	0.002	0.001
572.00	0.000	0.004	0.004	0.001	0.003	0.001	0.002	0.002	0.004	0.002	0.001	0.001	0.001	0.002	0.002	0.001
573.00	0.000	0.004	0.004	0.001	0.003	0.001	0.002	0.001	0.004	0.002	0.001	0.001	0.001	0.002	0.002	0.001
574.00	0.000	0.004	0.004	0.001	0.003	0.001	0.002	0.001	0.004	0.002	0.001	0.001	0.001	0.001	0.002	0.001
575.00	0.000	0.004	0.004	0.001	0.003	0.001	0.002	0.001	0.004	0.002	0.001	0.001	0.001	0.002	0.002	0.001
576.00	0.000	0.004	0.004	0.001	0.003	0.001	0.002	0.001	0.004	0.002	0.001	0.001	0.001	0.002	0.002	0.001
577.00	0.000	0.004	0.004	0.001	0.003	0.001	0.002	0.001	0.004	0.002	0.001	0.001	0.001	0.002	0.002	0.001
578.00	0.000	0.004	0.004	0.001	0.003	0.001	0.002	0.001	0.004	0.002	0.001	0.001	0.001	0.002	0.002	0.001
579.00	0.000	0.004	0.004	0.001	0.003	0.001	0.002	0.001	0.004	0.002	0.001	0.001	0.001	0.002	0.002	0.001
580.00	0.000	0.004	0.004	0.001	0.003	0.001	0.002	0.001	0.004	0.002	0.001	0.001	0.001	0.002	0.002	0.001
581.00	0.000	0.004	0.004	0.001	0.003	0.001	0.002	0.001	0.004	0.002	0.001	0.001	0.001	0.002	0.002	0.001
582.00	0.000	0.004	0.004	0.001	0.003	0.001	0.002	0.001	0.004	0.002	0.001	0.001	0.001	0.002	0.002	0.001
583.00	0.000	0.004	0.004	0.001	0.003	0.001	0.002	0.001	0.004	0.002	0.001	0.001	0.001	0.002	0.002	0.001
584.00	0.000	0.004	0.004	0.001	0.003	0.001	0.002	0.001	0.004	0.002	0.001	0.001	0.001	0.002	0.002	0.001
585.00	0.000	0.003	0.004	0.001	0.003	0.001	0.002	0.001	0.004	0.002	0.001	0.001	0.001	0.002	0.002	0.001
586.00	0.000	0.004	0.004	0.001	0.003	0.001	0.002	0.001	0.004	0.002	0.001	0.001	0.001	0.002	0.002	0.001
587.00	0.000	0.004	0.004	0.001	0.003	0.001	0.002	0.001	0.004	0.002	0.001	0.001	0.001	0.002	0.002	0.001
588.00	0.000	0.003	0.004	0.001	0.003	0.001	0.002	0.001	0.004	0.002	0.001	0.001	0.001	0.002	0.002	0.001
589.00	0.000	0.003	0.004	0.001	0.003	0.001	0.002	0.001	0.004	0.002	0.001	0.001	0.001	0.002	0.002	0.001
590.00	0.000	0.003	0.004	0.001	0.003	0.001	0.002	0.001	0.004	0.002	0.001	0.001	0.001	0.002	0.001	0.001
591.00	0.000	0.003	0.004	0.001	0.003	0.001	0.002	0.001	0.004	0.002	0.001	0.001	0.001	0.001	0.002	0.001
592.00	0.000	0.003	0.004	0.001	0.003	0.001	0.002	0.001	0.004	0.002	0.001	0.001	0.001	0.001	0.002	0.001
593.00	0.000	0.003	0.004	0.001	0.003	0.001	0.002	0.001	0.004	0.002	0.001	0.001	0.001	0.001	0.001	0.001
594.00	0.000	0.003	0.004	0.001	0.003	0.001	0.002	0.001	0.004	0.002	0.001	0.001	0.001	0.001	0.001	0.001
595.00	0.000	0.003	0.004	0.001	0.003	0.001	0.002	0.001	0.004	0.002	0.001	0.001	0.001	0.001	0.001	0.001
596.00	0.000	0.003	0.003	0.001	0.003	0.001	0.002	0.001	0.004	0.002	0.001	0.001	0.001	0.001	0.001	0.001
597.00	0.000	0.003	0.003	0.001	0.003	0.001	0.002	0.001	0.004	0.002	0.001	0.001	0.001	0.001	0.001	0.001
598.00	-0.000	0.003	0.003	0.001	0.003	0.001	0.002	0.001	0.004	0.002	0.001	0.001	0.001	0.001	0.001	0.001
599.00	-0.000	0.003	0.003	0.001	0.003	0.001	0.002	0.001	0.004	0.002	0.001	0.001	0.001	0.001	0.001	0.001
600.00	0.000	0.003	0.003	0.001	0.003	0.001	0.002	0.001	0.004	0.002	0.001	0.001	0.001	0.001	0.001	0.001
601.00	0.000	0.003	0.003	0.001	0.003	0.001	0.002	0.001	0.004	0.002	0.001	0.001	0.001	0.001	0.001	0.001
602.00	0.000	0.003	0.003	0.001	0.003	0.001	0.002	0.001	0.004	0.002	0.001	0.001	0.001	0.001	0.001	0.001
603.00	0.000	0.003	0.003	0.001	0.003	0.001	0.002	0.001	0.004	0.002	0.001	0.001	0.001	0.001	0.001	0.001
604.00	-0.000	0.003	0.003	0.001	0.003	0.001	0.002	0.001	0.004	0.002	0.001	0.001	0.001	0.001	0.001	0.001
605.00	-0.000	0.003	0.003	0.001	0.003	0.001	0.002	0.001	0.004	0.002	0.001	0.001	0.001	0.001	0.001	0.001
606.00	0.000	0.003	0.003	0.001	0.003	0.001	0.002	0.001	0.004	0.002	0.001	0.001	0.001	0.001	0.001	0.001
607.00	-0.000	0.003	0.003	0.001	0.002	0.001	0.002	0.001	0.004	0.002	0.001	0.001	0.001	0.001	0.001	0.001
608.00	0.000	0.003	0.003	0.001	0.003	0.001	0.002	0.001	0.004	0.002	0.001	0.001	0.001	0.001	0.001	0.001
609.00	-0.000	0.003	0.003	0.001	0.002	0.001	0.002	0.001	0.004	0.002	0.001	0.001	0.001	0.001	0.001	0.001
610.00	-0.000	0.003	0.003	0.001	0.002	0.001	0.002	0.001	0.004	0.002	0.001	0.001	0.001	0.001	0.001	0.001
611.00	-0.000	0.003	0.003	0.001	0.003	0.001	0.002	0.001	0.004	0.002	0.001	0.001	0.001	0.001	0.001	0.001
612.00	-0.000	0.003	0.003	0.001	0.003	0.001	0.002	0.001	0.004	0.002	0.001	0.001	0.001	0.001	0.001	0.001
613.00	-0.000	0.003	0.003	0.001	0.003	0.001	0.002	0.001	0.004	0.002	0.001	0.001	0.001	0.001	0.001	0.001
614.00	-0.000	0.003	0.003	0.001	0.003	0.001	0.002	0.001	0.004	0.002	0.001	0.001	0.001	0.001	0.001	0.001
615.00	-0.000	0.003	0.003	0.001	0.003	0.001	0.002	0.001	0.004	0.002	0.001	0.001	0.001	0.001	0.001	0.001
616.00	0.000	0.003	0.003	0.001	0.003	0.001	0.002	0.001	0.004	0.002	0.001	0.001	0.001	0.001	0.001	0.001
617.00	0.000	0.003	0.003	0.001	0.002	0.001	0.002	0.001	0.004	0.002	0.001	0.001	0.001	0.001	0.001	0.001
618.00	0.000	0.003	0.003	0.001	0.003	0.001	0.002	0.001	0.004	0.002	0.001	0.001	0.001	0.001	0.001	0.001
619.00	-0.000	0.003	0.003	0.001	0.002	0.001	0.002	0.001	0.004	0.002	0.001	0.001	0.001	0.001	0.001	0.001
620.00	-0.000	0.003	0.003	0.001	0.002	0.001	0.002	0.001	0.004	0.002	0.001	0.001	0.001	0.001	0.001	0.001
621.00	-0.000	0.003	0.003	0.001	0.002	0.001	0.002	0.001	0.004	0.002	0.001	0.001	0.001	0.001	0.001	0.001
622.00	-0.000	0.003	0.003	0.001	0.002	0.001	0.002	0.001	0.004	0.002	0.001	0.001	0.001	0.001	0.001	0.001
623.00	-0.000	0.003	0.003	0.001	0.002	0.001	0.002	0.001	0.004	0.002	0.001	0.001	0.001	0.001	0.001	0.001
624.00	-0.000	0.003	0.003	0.001	0.002	0.001	0.002	0.001	0.004	0.002	0.001	0.001	0.001	0.001	0.001	0.001
625.00	-0.000	0.003	0.003	0.001	0.002	0.001	0.002	0.001	0.004	0.002	0.000	0.001	0.001	0.001	0.001	0.001
626.00	-0.000	0.003	0.003	0.001	0.002	0.001	0.002	0.001	0.004	0.002	0.001	0.001	0.001	0.001	0.001	0.001
627.00	-0.000	0.003	0.003	0.001	0.002	0.001	0.002	0.001	0.004	0.002	0.001	0.001	0.001	0.001	0.001	0.001
628.00	-0.000	0.003	0.003	0.001	0.002	0.001	0.002	0.001	0.004	0.001	0.001	0.001	0.001	0.001	0.001	0.001
629.00	-0.000	0.003	0.003	0.001	0.002	0.001	0.002	0.001	0.004	0.001	0.001	0.001	0.001	0.001	0.001	0.001
630.00	-0.000	0.003	0.003	0.001	0.002	0.001	0.002	0.001	0.003	0.001	0.000	0.000	0.001	0.001	0.001	0.001
631.00	-0.000	0.003	0.003	0.001	0.002	0.001	0.002	0.001	0.004	0.001	0.001	0.001	0.000	0.001	0.001	0.001
632.00	-0.000	0.003	0.003	0.001	0.002	0.001	0.002	0.001	0.004	0.001	0.001	0.001	0.001	0.001	0.001	0.001
633.00	-0.000	0.003	0.003	0.001	0.002	0.001	0.002	0.001	0.004	0.001	0.001	0.001	0.001	0.001	0.001	0.001
634.00	-0.000	0.003	0.003	0.001	0.002	0.001	0.002	0.001	0.004	0.001	0.001	0.001	0.001	0.001	0.001	0.001
635.00	-0.000	0.003	0.003	0.001	0.002	0.001	0.002	0.001	0.003	0.001	0.001	0.001	0.001	0.001	0.001	0.001
636.00	-0.000	0.003	0.003	0.001	0.002	0.001	0.002	0.001	0.004	0.001	0.001	0.001	0.000	0.001	0.001	0.001
637.00	-0.000	0.003	0.003	0.001	0.002	0.001	0.002	0.001	0.003	0.001	0.001	0.001	0.000	0.001	0.001	0.001
638.00	-0.000	0.003	0.003	0.001	0.002	0.001	0.002	0.001	0.004	0.001	0.001	0.001	0.000	0.001	0.001	0.001
639.00	-0.000	0.003	0.003	0.001	0.002	0.001	0.002	0.001	0.003	0.001	0.001	0.001	0.000	0.001	0.001	0.001
640.00	-0.000	0.003	0.003	0.001	0.002	0.001	0.002	0.001	0.003	0.001	0.001	0.000	0.000	0.001	0.001	0.001
641.00	-0.000	0.003	0.003	0.001	0.002	0.001	0.002	0.001	0.003	0.001	0.001	0.000	0.000	0.001	0.001	0.001
642.00	-0.000	0.003	0.003	0.001	0.002	0.001	0.002	0.001	0.003	0.001	0.001	0.001	0.000	0.001	0.001	0.001
643.00	-0.000	0.003	0.003	0.001	0.002	0.001	0.002	0.001	0.003	0.001	0.001	0.001	0.000	0.001	0.001	0.001
644.00	-0.000	0.003	0.003	0.001	0.002	0.001	0.002	0.001	0.003	0.001	0.001	0.001	0.000	0.001	0.001	0.001
645.00	-0.000	0.003	0.003	0.001	0.002	0.001	0.002	0.001	0.003	0.001	0.001	0.001	0.000	0.001	0.001	0.001
646.00	-0.000	0.003	0.003	0.001	0.002	0.001	0.002	0.001	0.003	0.001	0.001	0.001	0.000	0.001	0.001	0.001
647.00	-0.000	0.003	0.003	0.001	0.002	0.001	0.002	0.001	0.003	0.001	0.001	0.001	0.001	0.001	0.001	0.001
648.00	0.000	0.003	0.003	0.001	0.002	0.001	0.002	0.001	0.003	0.002	0.001	0.001	0.001	0.001	0.001	0.001
649.00	0.000	0.003	0.003	0.001	0.002	0.001	0.002	0.001	0.003	0.002	0.001	0.001	0.001	0.001	0.001	0.001
650.00	-0.000	0.003	0.003	0.001	0.002	0.001	0.002	0.001	0.003	0.001	0.001	0.001	0.001	0.001	0.001	0.001
651.00	-0.000	0.003	0.003	0.001	0.002	0.001	0.002	0.001	0.003	0.001	0.001	0.001	0.000	0.001	0.001	0.001
652.00	-0.000	0.003	0.003	0.001	0.002	0.001	0.002	0.001	0.003	0.001	0.001	0.001	0.001	0.001	0.001	0.001
653.00	-0.000	0.003	0.003	0.001	0.002	0.001	0.002	0.001	0.003	0.001	0.001	0.001	0.000	0.001	0.001	0.001
654.00	0.000	0.003	0.003	0.001	0.002	0.001	0.002	0.001	0.003	0.001	0.001	0.001	0.000	0.001	0.001	0.001
655.00	0.000	0.003	0.003	0.001	0.002	0.001	0.002	0.001	0.003	0.002	0.001	0.001	0.001	0.001	0.001	0.001
656.00	0.000	0.003	0.003	0.001	0.002	0.001	0.002	0.001	0.003	0.002	0.001	0.001	0.001	0.001	0.001	0.001
657.00	0.000	0.003	0.003	0.001	0.002	0.001	0.002	0.001	0.003	0.001	0.001	0.001	0.000	0.001	0.001	0.001
658.00	0.000	0.003	0.003	0.001	0.002	0.001	0.002	0.001	0.003	0.001	0.001	0.001	0.001	0.001	0.001	0.001
659.00	-0.000	0.003	0.003	0.001	0.002	0.001	0.002	0.001	0.003	0.001	0.001	0.001	0.000	0.001	0.001	0.001
660.00	-0.000	0.003	0.003	0.001	0.002	0.001	0.002	0.001	0.003	0.001	0.001	0.001	0.000	0.001	0.001	0.001
661.00	0.000	0.003	0.003	0.001	0.002	0.001	0.002	0.001	0.003	0.002	0.001	0.001	0.001	0.001	0.001	0.001
662.00	0.000	0.003	0.003	0.001	0.002	0.001	0.002	0.001	0.003	0.001	0.001	0.001	0.001	0.001	0.001	0.001
663.00	0.000	0.003	0.003	0.001	0.002	0.001	0.002	0.001	0.003	0.001	0.001	0.001	0.000	0.001	0.001	0.001
664.00	0.000	0.003	0.003	0.001	0.002	0.001	0.002	0.001	0.003	0.001	0.001	0.001	0.000	0.001	0.001	0.001
665.00	0.000	0.003	0.003	0.001	0.002	0.001	0.002	0.001	0.003	0.001	0.001	0.001	0.001	0.001	0.001	0.001
666.00	0.000	0.003	0.003	0.001	0.002	0.001	0.002	0.001	0.003	0.001	0.001	0.001	0.000	0.001	0.001	0.001
667.00	0.000	0.003	0.003	0.001	0.002	0.001	0.002	0.001	0.003	0.001	0.001	0.001	0.001	0.001	0.001	0.001
668.00	0.000	0.003	0.003	0.001	0.002	0.001	0.002	0.001	0.003	0.001	0.001	0.001	0.001	0.001	0.001	0.001
669.00	0.000	0.003	0.003	0.001	0.002	0.001	0.002	0.001	0.003	0.002	0.001	0.001	0.001	0.001	0.001	0.001
670.00	0.000	0.003	0.003	0.001	0.002	0.001	0.002	0.001	0.003	0.001	0.001	0.001	0.000	0.001	0.001	0.001
671.00	0.000	0.003	0.003	0.001	0.002	0.001	0.002	0.001	0.003	0.001	0.001	0.001	0.000	0.001	0.001	0.001
672.00	0.000	0.003	0.003	0.001	0.002	0.001	0.002	0.001	0.003	0.001	0.001	0.001	0.001	0.001	0.001	0.001
673.00	0.000	0.003	0.003	0.001	0.002	0.001	0.002	0.001	0.003	0.001	0.001	0.001	0.001	0.001	0.001	0.001
674.00	0.000	0.003	0.003	0.001	0.002	0.001	0.002	0.001	0.003	0.001	0.001	0.001	0.000	0.001	0.001	0.001
675.00	0.000	0.003	0.003	0.001	0.002	0.001	0.002	0.001	0.003	0.001	0.001	0.001	0.000	0.001	0.001	0.001
676.00	0.000	0.003	0.003	0.001	0.002	0.001	0.002	0.001	0.003	0.001	0.001	0.001	0.001	0.001	0.001	0.001
677.00	0.000	0.003	0.003	0.001	0.002	0.001	0.002	0.001	0.003	0.001	0.001	0.001	0.000	0.001	0.001	0.001
678.00	0.000	0.003	0.003	0.001	0.002	0.001	0.002	0.001	0.003	0.001	0.001	0.001	0.000	0.001	0.001	0.001
679.00	0.000	0.003	0.003	0.001	0.002	0.001	0.002	0.001	0.003	0.001	0.001	0.001	0.000	0.001	0.001	0.001
680.00	0.000	0.003	0.003	0.001	0.002	0.001	0.002	0.001	0.003	0.001	0.001	0.001	0.001	0.001	0.001	0.001
681.00	0.000	0.003	0.003	0.001	0.002	0.001	0.002	0.001	0.003	0.001	0.001	0.001	0.000	0.001	0.001	0.001
682.00	0.000	0.003	0.003	0.001	0.002	0.001	0.002	0.001	0.003	0.001	0.001	0.001	0.000	0.001	0.001	0.001
683.00	0.000	0.003	0.003	0.001	0.002	0.001	0.002	0.001	0.003	0.001	0.001	0.001	0.000	0.001	0.001	0.001
684.00	0.000	0.003	0.003	0.001	0.002	0.001	0.002	0.001	0.003	0.001	0.001	0.001	0.001	0.001	0.001	0.001
685.00	0.000	0.003	0.003	0.001	0.002	0.001	0.002	0.001	0.003	0.001	0.001	0.001	0.001	0.001	0.001	0.001
686.00	0.000	0.003	0.003	0.001	0.002	0.001	0.002	0.001	0.003	0.001	0.001	0.001	0.001	0.001	0.001	0.001
687.00	0.000	0.003	0.003	0.001	0.002	0.001	0.002	0.001	0.003	0.001	0.001	0.001	0.001	0.001	0.001	0.001
688.00	0.000	0.003	0.003	0.001	0.002	0.001	0.002	0.001	0.003	0.001	0.001	0.001	0.000	0.001	0.001	0.001
689.00	0.000	0.003	0.003	0.001	0.002	0.001	0.002	0.001	0.003	0.001	0.001	0.001	0.000	0.001	0.001	0.001
690.00	-0.000	0.003	0.003	0.001	0.002	0.001	0.002	0.001	0.003	0.001	0.001	0.001	0.000	0.001	0.001	0.001
691.00	0.000	0.003	0.003	0.001	0.002	0.001	0.002	0.001	0.003	0.001	0.001	0.001	0.000	0.001	0.001	0.001
692.00	0.000	0.003	0.003	0.001	0.002	0.001	0.002	0.001	0.003	0.001	0.001	0.001	0.001	0.001	0.001	0.001
693.00	0.000	0.003	0.003	0.001	0.002	0.001	0.002	0.001	0.003	0.001	0.001	0.001	0.000	0.001	0.001	0.001
694.00	0.000	0.003	0.003	0.001	0.002	0.001	0.002	0.001	0.003	0.001	0.001	0.001	0.000	0.001	0.001	0.001
695.00	0.000	0.003	0.003	0.001	0.002	0.001	0.002	0.001	0.003	0.001	0.001	0.001	0.000	0.001	0.001	0.001
696.00	0.000	0.003	0.003	0.001	0.002	0.001	0.002	0.001	0.003	0.001	0.001	0.001	0.001	0.001	0.001	0.001
697.00	0.000	0.003	0.003	0.001	0.002	0.001	0.002	0.001	0.003	0.001	0.001	0.001	0.001	0.001	0.001	0.001
698.00	0.000	0.003	0.003	0.001	0.002	0.001	0.002	0.001	0.003	0.001	0.001	0.001	0.000	0.001	0.001	0.001
699.00	0.000	0.003	0.003	0.001	0.002	0.001	0.002	0.001	0.003	0.001	0.001	0.001	0.000	0.001	0.001	0.001
700.00	-0.000	0.003	0.003	0.001	0.002	0.001	0.002	0.001	0.003	0.001	0.001	0.001	0.000	0.001	0.001	0.001
701.00	0.000	0.003	0.003	0.001	0.002	0.001	0.002	0.001	0.003	0.001	0.001	0.001	0.000	0.001	0.001	0.001
702.00	0.000	0.003	0.003	0.001	0.002	0.001	0.002	0.001	0.003	0.001	0.001	0.001	0.000	0.001	0.001	0.001
703.00	-0.000	0.003	0.003	0.001	0.002	0.001	0.002	0.001	0.003	0.001	0.001	0.001	0.000	0.001	0.001	0.001
704.00	-0.000	0.003	0.003	0.001	0.002	0.001	0.002	0.001	0.003	0.001	0.001	0.001	0.000	0.001	0.001	0.001
705.00	-0.000	0.003	0.003	0.001	0.002	0.001	0.002	0.001	0.003	0.001	0.001	0.001	0.000	0.001	0.001	0.001
706.00	0.000	0.003	0.003	0.001	0.002	0.001	0.002	0.001	0.003	0.001	0.001	0.001	0.001	0.001	0.001	0.001
707.00	0.000	0.003	0.003	0.001	0.002	0.001	0.001	0.001	0.003	0.001	0.001	0.001	0.000	0.001	0.001	0.001
708.00	-0.000	0.003	0.003	0.001	0.002	0.001	0.001	0.001	0.003	0.001	0.001	0.001	0.000	0.001	0.001	0.001
709.00	-0.000	0.003	0.003	0.001	0.002	0.001	0.001	0.001	0.003	0.001	0.001	0.001	0.000	0.001	0.001	0.001
710.00	-0.000	0.002	0.003	0.001	0.002	0.001	0.001	0.001	0.003	0.001	0.001	0.000	0.000	0.001	0.001	0.001
711.00	-0.000	0.002	0.003	0.001	0.002	0.001	0.001	0.001	0.003	0.001	0.001	0.000	0.000	0.001	0.001	0.001
712.00	0.000	0.003	0.003	0.001	0.002	0.001	0.002	0.001	0.003	0.001	0.001	0.001	0.000	0.001	0.001	0.001
713.00	0.000	0.003	0.003	0.001	0.002	0.001	0.002	0.001	0.003	0.001	0.001	0.001	0.000	0.001	0.001	0.001
714.00	0.000	0.003	0.003	0.001	0.002	0.001	0.002	0.001	0.003	0.001	0.001	0.001	0.000	0.001	0.001	0.001
715.00	-0.000	0.002	0.003	0.001	0.002	0.001	0.001	0.001	0.003	0.001	0.001	0.000	0.000	0.001	0.001	0.001
716.00	-0.000	0.002	0.003	0.001	0.002	0.001	0.001	0.001	0.003	0.001	0.001	0.000	0.000	0.001	0.001	0.001
717.00	-0.000	0.002	0.003	0.001	0.002	0.001	0.001	0.001	0.003	0.001	0.001	0.000	0.000	0.001	0.001	0.001
718.00	-0.000	0.002	0.003	0.001	0.002	0.001	0.001	0.001	0.003	0.001	0.001	0.001	0.000	0.001	0.001	0.001
719.00	-0.000	0.002	0.003	0.001	0.002	0.001	0.001	0.001	0.003	0.001	0.000	0.000	0.000	0.001	0.001	0.001
720.00	-0.000	0.002	0.003	0.001	0.002	0.001	0.001	0.001	0.003	0.001	0.000	0.000	0.000	0.001	0.001	0.001
721.00	-0.000	0.002	0.003	0.001	0.002	0.001	0.001	0.001	0.003	0.001	0.001	0.000	0.000	0.001	0.001	0.001
722.00	-0.000	0.002	0.003	0.001	0.002	0.001	0.001	0.001	0.003	0.001	0.000	0.000	0.000	0.001	0.001	0.001
723.00	-0.000	0.002	0.003	0.001	0.002	0.001	0.001	0.001	0.003	0.001	0.000	0.000	0.000	0.001	0.001	0.001
724.00	-0.000	0.002	0.003	0.001	0.002	0.000	0.001	0.001	0.003	0.001	0.000	0.000	0.000	0.001	0.001	0.001
725.00	-0.000	0.002	0.003	0.001	0.002	0.000	0.001	0.001	0.003	0.001	0.000	0.000	0.000	0.001	0.001	0.001
726.00	-0.000	0.002	0.003	0.001	0.002	0.000	0.001	0.001	0.003	0.001	0.000	0.000	0.000	0.001	0.001	0.001
727.00	-0.000	0.002	0.003	0.001	0.002	0.000	0.001	0.001	0.003	0.001	0.001	0.000	0.000	0.001	0.001	0.001
728.00	-0.000	0.002	0.003	0.001	0.002	0.000	0.001	0.001	0.003	0.001	0.000	0.000	0.000	0.001	0.001	0.001
729.00	-0.000	0.002	0.003	0.001	0.002	0.000	0.001	0.001	0.003	0.001	0.000	0.000	0.000	0.001	0.001	0.001
730.00	-0.000	0.002	0.003	0.001	0.002	0.000	0.001	0.001	0.003	0.001	0.000	0.000	0.000	0.001	0.001	0.001
731.00	-0.000	0.002	0.003	0.001	0.002	0.000	0.001	0.001	0.003	0.001	0.000	0.000	0.000	0.001	0.001	0.001
732.00	-0.000	0.002	0.002	0.000	0.002	0.000	0.001	0.001	0.003	0.001	0.000	0.000	0.000	0.001	0.001	0.001
733.00	-0.000	0.002	0.002	0.000	0.002	0.000	0.001	0.001	0.003	0.001	0.000	0.000	0.000	0.001	0.001	0.001
734.00	-0.000	0.002	0.002	0.000	0.002	0.000	0.001	0.001	0.003	0.001	0.000	0.000	0.000	0.001	0.001	0.001
735.00	-0.000	0.002	0.003	0.001	0.002	0.000	0.001	0.001	0.003	0.001	0.000	0.000	0.000	0.001	0.001	0.001
736.00	-0.000	0.002	0.002	0.001	0.002	0.000	0.001	0.001	0.003	0.001	0.000	0.000	0.000	0.001	0.001	0.001
737.00	-0.000	0.002	0.002	0.001	0.002	0.000	0.001	0.001	0.003	0.001	0.000	0.000	0.000	0.001	0.001	0.001
738.00	-0.000	0.002	0.002	0.001	0.002	0.000	0.001	0.001	0.003	0.001	0.000	0.000	0.000	0.001	0.001	0.001
739.00	-0.000	0.002	0.003	0.001	0.002	0.000	0.001	0.001	0.003	0.001	0.000	0.000	0.000	0.001	0.001	0.001
740.00	-0.000	0.002	0.003	0.001	0.002	0.000	0.001	0.001	0.003	0.001	0.000	0.000	0.000	0.001	0.001	0.001
741.00	-0.000	0.002	0.002	0.001	0.002	0.000	0.001	0.001	0.003	0.001	0.000	0.000	0.000	0.001	0.001	0.001
742.00	0.000	0.002	0.003	0.001	0.002	0.000	0.001	0.001	0.003	0.001	0.000	0.000	0.000	0.001	0.001	0.001
743.00	-0.000	0.002	0.002	0.000	0.002	0.000	0.001	0.001	0.003	0.001	0.000	0.000	0.000	0.001	0.001	0.001
744.00	-0.000	0.002	0.002	0.000	0.002	0.000	0.001	0.000	0.003	0.001	0.000	0.000	0.000	0.000	0.001	0.001
745.00	-0.000	0.002	0.002	0.000	0.002	0.000	0.001	0.001	0.003	0.001	0.000	0.000	0.000	0.001	0.001	0.001
746.00	-0.000	0.002	0.002	0.001	0.002	0.000	0.001	0.001	0.003	0.001	0.000	0.000	0.000	0.001	0.001	0.001
747.00	-0.000	0.002	0.002	0.000	0.002	0.000	0.001	0.001	0.003	0.001	0.000	0.000	0.000	0.001	0.001	0.001
748.00	-0.000	0.002	0.003	0.001	0.002	0.000	0.001	0.001	0.003	0.001	0.000	0.000	0.000	0.001	0.001	0.001
749.00	-0.000	0.002	0.003	0.001	0.002	0.001	0.001	0.001	0.003	0.001	0.000	0.000	0.000	0.001	0.001	0.001
750.00	-0.000	0.002	0.003	0.001	0.002	0.001	0.001	0.001	0.003	0.001	0.000	0.000	0.000	0.001	0.001	0.001
751.00	-0.000	0.002	0.003	0.001	0.002	0.001	0.001	0.001	0.003	0.001	0.001	0.000	0.000	0.001	0.001	0.001
752.00	-0.000	0.002	0.003	0.001	0.002	0.000	0.001	0.001	0.003	0.001	0.001	0.000	0.000	0.001	0.001	0.001
753.00	-0.000	0.002	0.003	0.001	0.002	0.000	0.001	0.001	0.003	0.001	0.001	0.000	0.000	0.001	0.001	0.001
754.00	-0.000	0.002	0.003	0.001	0.002	0.000	0.001	0.001	0.003	0.001	0.000	0.000	0.000	0.001	0.001	0.001
755.00	-0.000	0.002	0.003	0.000	0.002	0.000	0.001	0.001	0.003	0.001	0.000	0.000	0.000	0.001	0.001	0.001
756.00	-0.000	0.002	0.003	0.000	0.002	0.000	0.001	0.001	0.003	0.001	0.000	0.000	0.000	0.001	0.001	0.001
757.00	-0.000	0.002	0.003	0.000	0.002	0.000	0.001	0.001	0.003	0.001	0.001	0.000	0.000	0.001	0.001	0.001
758.00	-0.000	0.002	0.003	0.000	0.002	0.000	0.001	0.001	0.003	0.001	0.001	0.000	0.000	0.001	0.001	0.001
759.00	0.000	0.003	0.003	0.001	0.002	0.001	0.001	0.001	0.003	0.001	0.001	0.001	0.001	0.001	0.001	0.001
760.00	0.001	0.003	0.004	0.002	0.003	0.002	0.002	0.002	0.004	0.002	0.002	0.001	0.001	0.002	0.002	0.002
761.00	0.000	0.002	0.003	0.001	0.002	0.001	0.001	0.001	0.003	0.001	0.001	0.001	0.001	0.001	0.001	0.001
762.00	0.000	0.002	0.003	0.000	0.002	0.000	0.001	0.001	0.003	0.001	0.001	0.000	0.000	0.001	0.001	0.001
763.00	-0.000	0.002	0.002	0.000	0.002	0.001	0.001	0.001	0.003	0.001	0.001	0.000	0.000	0.001	0.001	0.001
764.00	0.000	0.002	0.003	0.000	0.002	0.001	0.001	0.001	0.003	0.001	0.001	0.001	0.000	0.001	0.001	0.001
765.00	-0.000	0.002	0.003	0.000	0.002	0.001	0.001	0.001	0.003	0.001	0.001	0.001	0.000	0.001	0.001	0.001
766.00	-0.000	0.002	0.002	0.001	0.002	0.001	0.001	0.001	0.003	0.001	0.001	0.001	0.000	0.001	0.001	0.001
767.00	-0.000	0.002	0.002	0.000	0.002	0.001	0.001	0.001	0.003	0.001	0.001	0.000	0.000	0.001	0.001	0.001
768.00	-0.000	0.002	0.003	0.000	0.002	0.001	0.001	0.001	0.003	0.001	0.001	0.001	0.000	0.001	0.001	0.001
769.00	-0.000	0.002	0.003	0.000	0.002	0.001	0.001	0.001	0.003	0.001	0.001	0.001	0.000	0.001	0.001	0.001
770.00	-0.000	0.002	0.003	0.001	0.002	0.001	0.001	0.001	0.003	0.001	0.001	0.001	0.000	0.001	0.001	0.001
771.00	-0.000	0.002	0.003	0.001	0.002	0.000	0.001	0.001	0.003	0.001	0.001	0.001	0.000	0.001	0.001	0.001
772.00	-0.000	0.002	0.002	0.001	0.002	0.000	0.001	0.001	0.003	0.001	0.001	0.001	0.000	0.001	0.001	0.001
773.00	-0.000	0.002	0.003	0.001	0.002	0.001	0.001	0.001	0.003	0.001	0.001	0.001	0.000	0.001	0.001	0.001
774.00	0.000	0.002	0.003	0.001	0.002	0.001	0.001	0.001	0.003	0.001	0.001	0.001	0.000	0.001	0.001	0.001
775.00	-0.000	0.002	0.003	0.001	0.002	0.001	0.001	0.001	0.003	0.001	0.001	0.001	0.000	0.001	0.001	0.001
776.00	-0.000	0.002	0.003	0.001	0.002	0.001	0.001	0.001	0.003	0.001	0.001	0.001	0.000	0.001	0.001	0.001
777.00	-0.000	0.002	0.003	0.001	0.002	0.001	0.001	0.001	0.003	0.001	0.001	0.001	0.001	0.001	0.001	0.001
778.00	-0.000	0.002	0.003	0.001	0.002	0.001	0.001	0.001	0.003	0.001	0.001	0.001	0.000	0.001	0.001	0.001
779.00	-0.000	0.002	0.003	0.000	0.002	0.001	0.001	0.001	0.003	0.001	0.001	0.001	0.000	0.001	0.001	0.001
780.00	0.000	0.002	0.003	0.001	0.002	0.001	0.001	0.001	0.003	0.001	0.001	0.001	0.000	0.001	0.001	0.001
781.00	-0.000	0.002	0.003	0.001	0.002	0.001	0.001	0.001	0.003	0.001	0.001	0.001	0.000	0.001	0.001	0.001
782.00	-0.000	0.002	0.003	0.001	0.002	0.001	0.001	0.001	0.003	0.001	0.001	0.001	0.000	0.001	0.001	0.001
783.00	-0.000	0.002	0.003	0.000	0.002	0.001	0.001	0.001	0.003	0.001	0.001	0.001	0.000	0.001	0.001	0.001
784.00	-0.000	0.002	0.002	0.000	0.002	0.001	0.001	0.001	0.003	0.001	0.001	0.001	0.000	0.001	0.001	0.001
785.00	-0.000	0.002	0.003	0.000	0.002	0.001	0.001	0.001	0.003	0.001	0.001	0.001	0.000	0.001	0.001	0.001
786.00	-0.000	0.002	0.002	0.001	0.002	0.001	0.001	0.001	0.003	0.001	0.001	0.001	0.000	0.001	0.001	0.001
787.00	-0.000	0.002	0.002	0.001	0.002	0.001	0.001	0.001	0.003	0.001	0.001	0.001	0.000	0.001	0.001	0.001
788.00	-0.000	0.002	0.003	0.000	0.002	0.001	0.001	0.001	0.003	0.001	0.001	0.001	0.000	0.001	0.001	0.001
789.00	0.000	0.002	0.003	0.001	0.002	0.001	0.001	0.001	0.003	0.001	0.001	0.001	0.001	0.001	0.001	0.001
790.00	-0.000	0.002	0.003	0.001	0.002	0.001	0.001	0.001	0.003	0.001	0.001	0.001	0.001	0.001	0.001	0.001
791.00	-0.000	0.002	0.003	0.001	0.002	0.001	0.002	0.001	0.003	0.001	0.001	0.001	0.000	0.001	0.001	0.001
792.00	0.000	0.002	0.003	0.001	0.002	0.001	0.002	0.001	0.003	0.001	0.001	0.001	0.001	0.001	0.001	0.001
793.00	0.000	0.002	0.003	0.001	0.002	0.001	0.002	0.001	0.003	0.001	0.001	0.001	0.001	0.001	0.001	0.001
794.00	-0.000	0.002	0.003	0.001	0.002	0.001	0.001	0.001	0.003	0.001	0.001	0.001	0.001	0.001	0.001	0.001
795.00	-0.000	0.002	0.003	0.001	0.002	0.001	0.001	0.001	0.003	0.001	0.001	0.001	0.000	0.001	0.001	0.001
796.00	-0.000	0.002	0.003	0.001	0.002	0.001	0.001	0.001	0.003	0.001	0.001	0.001	0.001	0.001	0.001	0.001
797.00	0.000	0.002	0.003	0.001	0.002	0.001	0.001	0.001	0.003	0.001	0.001	0.001	0.001	0.001	0.001	0.001
798.00	0.000	0.002	0.003	0.001	0.002	0.001	0.001	0.001	0.003	0.001	0.001	0.001	0.001	0.001	0.001	0.001
799.00	0.000	0.002	0.003	0.001	0.002	0.001	0.001	0.001	0.003	0.001	0.001	0.001	0.001	0.001	0.001	0.001
800.00	-0.000	0.002	0.003	0.001	0.002	0.001	0.001	0.001	0.003	0.001	0.001	0.001	0.001	0.001	0.001	0.001
801.00	0.000	0.002	0.003	0.001	0.002	0.001	0.001	0.001	0.003	0.001	0.001	0.001	0.001	0.001	0.001	0.001
802.00	0.000	0.002	0.003	0.001	0.002	0.001	0.001	0.001	0.003	0.001	0.001	0.001	0.001	0.001	0.001	0.001
803.00	0.000	0.002	0.003	0.001	0.002	0.001	0.001	0.001	0.003	0.001	0.001	0.001	0.001	0.001	0.001	0.001
804.00	0.000	0.002	0.003	0.001	0.002	0.001	0.001	0.001	0.003	0.001	0.001	0.001	0.001	0.001	0.001	0.001
805.00	0.000	0.002	0.003	0.001	0.002	0.001	0.001	0.001	0.003	0.001	0.001	0.001	0.001	0.001	0.001	0.001
806.00	0.000	0.002	0.003	0.001	0.002	0.001	0.001	0.001	0.003	0.001	0.001	0.001	0.001	0.001	0.001	0.001
807.00	0.000	0.002	0.003	0.001	0.002	0.001	0.001	0.001	0.003	0.001	0.001	0.001	0.001	0.001	0.001	0.001
808.00	0.000	0.002	0.003	0.001	0.002	0.001	0.001	0.001	0.003	0.001	0.001	0.001	0.001	0.001	0.001	0.001
809.00	-0.000	0.002	0.003	0.000	0.002	0.001	0.001	0.001	0.003	0.001	0.001	0.001	0.000	0.001	0.001	0.001
810.00	0.000	0.002	0.003	0.001	0.002	0.001	0.001	0.001	0.003	0.001	0.001	0.001	0.000	0.001	0.001	0.001
811.00	0.000	0.002	0.003	0.001	0.002	0.001	0.001	0.001	0.003	0.001	0.001	0.001	0.001	0.001	0.001	0.001
812.00	0.000	0.002	0.003	0.001	0.002	0.001	0.001	0.001	0.003	0.001	0.001	0.001	0.001	0.001	0.001	0.001
813.00	0.000	0.002	0.003	0.001	0.002	0.001	0.001	0.001	0.003	0.001	0.001	0.001	0.000	0.001	0.001	0.001
814.00	0.000	0.002	0.003	0.001	0.002	0.001	0.001	0.001	0.003	0.001	0.001	0.001	0.000	0.001	0.001	0.001
815.00	0.000	0.002	0.003	0.001	0.002	0.001	0.001	0.001	0.003	0.001	0.001	0.001	0.001	0.001	0.001	0.001
816.00	0.000	0.002	0.003	0.001	0.002	0.001	0.001	0.001	0.003	0.001	0.001	0.001	0.001	0.001	0.001	0.001
817.00	0.000	0.002	0.003	0.001	0.002	0.001	0.001	0.001	0.003	0.001	0.001	0.001	0.000	0.001	0.001	0.001
818.00	0.000	0.002	0.003	0.001	0.002	0.001	0.001	0.001	0.003	0.001	0.001	0.001	0.000	0.001	0.001	0.001
819.00	0.000	0.002	0.003	0.001	0.002	0.001	0.001	0.001	0.003	0.001	0.001	0.001	0.000	0.001	0.001	0.001
820.00	0.000	0.002	0.002	0.001	0.002	0.001	0.001	0.001	0.003	0.001	0.001	0.001	0.000	0.001	0.001	0.001
821.00	0.000	0.002	0.002	0.001	0.002	0.001	0.001	0.001	0.003	0.001	0.001	0.001	0.000	0.001	0.001	0.001
822.00	0.000	0.002	0.002	0.001	0.002	0.001	0.001	0.001	0.003	0.001	0.001	0.001	0.000	0.001	0.001	0.001
823.00	0.000	0.002	0.002	0.001	0.002	0.001	0.001	0.001	0.003	0.001	0.001	0.001	0.001	0.001	0.001	0.001
824.00	0.000	0.002	0.002	0.001	0.002	0.001	0.001	0.001	0.003	0.001	0.001	0.001	0.000	0.001	0.001	0.001
825.00	0.000	0.002	0.002	0.001	0.002	0.001	0.001	0.001	0.003	0.001	0.001	0.001	0.000	0.001	0.001	0.001
826.00	0.000	0.002	0.002	0.001	0.002	0.000	0.001	0.001	0.003	0.001	0.001	0.001	0.000	0.001	0.001	0.001
827.00	0.000	0.002	0.002	0.001	0.002	0.000	0.001	0.001	0.003	0.001	0.001	0.001	0.000	0.001	0.001	0.001
828.00	0.000	0.002	0.002	0.001	0.002	0.001	0.001	0.001	0.003	0.001	0.001	0.001	0.000	0.001	0.001	0.001
829.00	0.000	0.002	0.002	0.000	0.002	0.000	0.001	0.001	0.003	0.001	0.001	0.000	0.000	0.001	0.001	0.001
830.00	-0.000	0.002	0.002	0.000	0.002	0.000	0.001	0.001	0.003	0.001	0.001	0.000	0.000	0.001	0.001	0.001
831.00	0.000	0.002	0.002	0.001	0.002	0.000	0.001	0.001	0.003	0.001	0.001	0.000	0.000	0.001	0.001	0.001
832.00	0.000	0.002	0.002	0.001	0.002	0.000	0.001	0.001	0.003	0.001	0.001	0.000	0.000	0.001	0.001	0.001
833.00	0.000	0.002	0.002	0.001	0.002	0.000	0.001	0.001	0.003	0.001	0.000	0.000	0.000	0.001	0.001	0.001
834.00	0.000	0.002	0.002	0.001	0.002	0.000	0.001	0.001	0.003	0.001	0.000	0.000	0.000	0.000	0.001	0.001
835.00	-0.000	0.002	0.002	0.000	0.002	0.000	0.001	0.001	0.003	0.001	0.000	0.000	0.000	0.000	0.001	0.001
836.00	0.000	0.002	0.002	0.001	0.002	0.000	0.001	0.001	0.003	0.001	0.001	0.001	0.000	0.001	0.001	0.001
837.00	0.000	0.002	0.002	0.001	0.002	0.000	0.001	0.001	0.003	0.001	0.000	0.001	0.000	0.001	0.001	0.001
838.00	0.000	0.002	0.002	0.000	0.002	0.000	0.001	0.001	0.003	0.001	0.000	0.000	0.000	0.001	0.001	0.001
839.00	0.000	0.002	0.002	0.001	0.002	0.000	0.001	0.001	0.003	0.001	0.000	0.001	0.000	0.001	0.001	0.001
840.00	0.000	0.002	0.002	0.000	0.002	0.000	0.001	0.001	0.003	0.001	0.000	0.000	0.000	0.001	0.001	0.001
841.00	0.000	0.002	0.002	0.000	0.002	0.000	0.001	0.001	0.003	0.001	0.000	0.000	0.000	0.001	0.001	0.001
842.00	0.000	0.002	0.002	0.001	0.002	0.000	0.001	0.001	0.003	0.001	0.001	0.001	0.000	0.001	0.001	0.001
843.00	0.000	0.002	0.002	0.000	0.002	0.000	0.001	0.001	0.003	0.001	0.001	0.000	0.000	0.001	0.001	0.001
844.00	0.000	0.002	0.002	0.001	0.002	0.000	0.001	0.001	0.003	0.001	0.001	0.000	0.000	0.001	0.001	0.001
845.00	0.000	0.002	0.002	0.000	0.002	0.000	0.001	0.001	0.003	0.001	0.000	0.000	0.000	0.000	0.001	0.001
846.00	0.000	0.002	0.002	0.001	0.002	0.000	0.001	0.001	0.003	0.001	0.000	0.000	0.000	0.001	0.001	0.001
847.00	-0.000	0.002	0.002	0.000	0.002	0.000	0.001	0.001	0.003	0.001	0.000	0.000	0.000	0.001	0.001	0.001
848.00	-0.000	0.002	0.002	0.001	0.002	0.000	0.001	0.001	0.003	0.001	0.000	0.000	0.000	0.001	0.001	0.001
849.00	0.000	0.002	0.002	0.001	0.002	0.000	0.001	0.001	0.003	0.001	0.000	0.001	0.000	0.001	0.001	0.001
850.00	-0.000	0.002	0.002	0.001	0.002	0.000	0.001	0.001	0.003	0.001	0.000	0.000	0.000	0.001	0.001	0.001
