Wavelength nm.,MilliQ,CP2_30SEP24_01R1,CP1_30SEP24_01R2,CC3_30SEP24_01R1,CC4_30SEP24_01R1,CC2_30SEP24_BOTR2,CC3_30SEP24_15R1,CC4_30SEP24_9R1,CS2_30SEP24_01R2,CS1_30SEP24_01R1,CC4_30SEP24_BOTR2,CC2_30SEP24_01R1,CC3_30SEP24_BOTR2,CC4_30SEP24_6R2,CC3_30SEP24_15R2,CC4_30SEP24_15R2
190,0.001,0.315,0.298,0.4,0.404,0.405,0.39,0.481,0.297,0.294,0.455,0.339,0.373,0.635,0.383,0.396
191,0.001,0.301,0.286,0.368,0.37,0.373,0.36,0.449,0.287,0.284,0.423,0.314,0.345,0.604,0.35,0.362
192,0.001,0.29,0.277,0.337,0.34,0.345,0.331,0.417,0.281,0.276,0.394,0.29,0.319,0.574,0.322,0.333
193,0.001,0.279,0.266,0.304,0.307,0.315,0.3,0.383,0.272,0.268,0.361,0.264,0.289,0.542,0.291,0.301
194,0,0.269,0.258,0.278,0.281,0.29,0.275,0.357,0.264,0.261,0.337,0.243,0.264,0.515,0.267,0.275
195,0,0.261,0.251,0.253,0.256,0.267,0.252,0.33,0.26,0.255,0.313,0.224,0.241,0.487,0.244,0.251
196,0,0.255,0.245,0.233,0.236,0.247,0.233,0.309,0.254,0.25,0.293,0.208,0.223,0.463,0.227,0.229
197,0.001,0.249,0.24,0.215,0.218,0.23,0.215,0.29,0.25,0.245,0.277,0.193,0.206,0.44,0.21,0.21
198,0,0.244,0.235,0.199,0.203,0.215,0.2,0.273,0.244,0.242,0.262,0.18,0.192,0.415,0.196,0.194
199,0,0.24,0.232,0.185,0.189,0.203,0.186,0.26,0.241,0.238,0.249,0.169,0.18,0.392,0.183,0.181
200,0.001,0.236,0.228,0.174,0.177,0.192,0.175,0.248,0.238,0.235,0.238,0.16,0.169,0.371,0.173,0.169
201,0,0.232,0.225,0.163,0.166,0.182,0.165,0.237,0.234,0.232,0.228,0.152,0.16,0.353,0.164,0.16
202,0.001,0.228,0.221,0.154,0.157,0.173,0.157,0.228,0.23,0.229,0.22,0.144,0.151,0.337,0.155,0.15
203,0.001,0.225,0.218,0.146,0.15,0.165,0.149,0.219,0.227,0.226,0.212,0.138,0.145,0.322,0.148,0.143
204,0.001,0.221,0.215,0.139,0.143,0.158,0.143,0.211,0.224,0.223,0.205,0.132,0.138,0.308,0.142,0.135
205,0.001,0.218,0.212,0.133,0.136,0.152,0.136,0.204,0.22,0.219,0.198,0.127,0.132,0.295,0.136,0.129
206,0.001,0.215,0.209,0.128,0.131,0.147,0.132,0.198,0.217,0.216,0.192,0.123,0.127,0.284,0.131,0.124
207,0.001,0.211,0.206,0.124,0.126,0.142,0.127,0.192,0.213,0.213,0.187,0.119,0.123,0.273,0.127,0.12
208,0.001,0.208,0.202,0.119,0.122,0.138,0.123,0.186,0.21,0.21,0.181,0.116,0.119,0.263,0.123,0.115
209,0.001,0.204,0.199,0.115,0.118,0.133,0.119,0.18,0.206,0.206,0.175,0.112,0.116,0.253,0.119,0.111
210,0.001,0.2,0.195,0.112,0.114,0.13,0.116,0.174,0.202,0.202,0.17,0.109,0.112,0.244,0.116,0.108
211,0.001,0.197,0.192,0.109,0.111,0.126,0.112,0.168,0.198,0.199,0.164,0.106,0.109,0.235,0.112,0.105
212,0.001,0.193,0.188,0.106,0.108,0.122,0.109,0.162,0.194,0.195,0.158,0.103,0.106,0.227,0.109,0.102
213,0.001,0.189,0.185,0.103,0.105,0.119,0.106,0.157,0.19,0.191,0.152,0.101,0.102,0.219,0.106,0.099
214,0.001,0.185,0.181,0.1,0.102,0.116,0.103,0.151,0.185,0.187,0.145,0.098,0.1,0.211,0.103,0.096
215,0.001,0.181,0.177,0.097,0.099,0.113,0.101,0.145,0.181,0.183,0.139,0.096,0.097,0.204,0.101,0.093
216,0.001,0.177,0.174,0.094,0.097,0.11,0.098,0.139,0.177,0.179,0.134,0.093,0.094,0.197,0.098,0.091
217,0.001,0.174,0.171,0.092,0.094,0.107,0.096,0.134,0.173,0.175,0.127,0.091,0.092,0.19,0.096,0.089
218,0.001,0.17,0.167,0.09,0.092,0.105,0.094,0.129,0.17,0.172,0.122,0.089,0.089,0.184,0.094,0.087
219,0.001,0.167,0.164,0.088,0.09,0.103,0.092,0.124,0.166,0.169,0.117,0.087,0.087,0.179,0.092,0.085
220,0.001,0.164,0.161,0.086,0.088,0.1,0.09,0.12,0.163,0.166,0.111,0.085,0.085,0.174,0.09,0.083
221,0.001,0.161,0.158,0.085,0.086,0.098,0.088,0.115,0.16,0.163,0.106,0.084,0.083,0.169,0.088,0.081
222,0.001,0.158,0.156,0.083,0.085,0.096,0.086,0.111,0.157,0.16,0.102,0.082,0.081,0.164,0.086,0.079
223,0.001,0.155,0.153,0.081,0.083,0.094,0.084,0.107,0.154,0.157,0.097,0.08,0.08,0.159,0.085,0.078
224,0.001,0.152,0.151,0.08,0.082,0.092,0.083,0.103,0.151,0.154,0.093,0.079,0.078,0.155,0.083,0.076
225,0.001,0.15,0.148,0.078,0.08,0.09,0.081,0.099,0.149,0.152,0.089,0.077,0.076,0.15,0.082,0.074
226,0.001,0.147,0.146,0.076,0.078,0.089,0.079,0.096,0.146,0.149,0.086,0.075,0.075,0.146,0.08,0.073
227,0.001,0.145,0.143,0.075,0.077,0.087,0.077,0.093,0.143,0.146,0.082,0.074,0.073,0.141,0.078,0.071
228,0.001,0.142,0.141,0.074,0.076,0.085,0.076,0.09,0.141,0.144,0.079,0.073,0.071,0.138,0.077,0.07
229,0.001,0.14,0.139,0.072,0.074,0.083,0.075,0.087,0.139,0.142,0.077,0.071,0.07,0.134,0.076,0.069
230,0.001,0.138,0.137,0.071,0.073,0.082,0.073,0.085,0.136,0.14,0.074,0.07,0.068,0.13,0.074,0.067
231,0.001,0.136,0.135,0.07,0.072,0.081,0.072,0.083,0.134,0.137,0.072,0.069,0.067,0.127,0.073,0.066
232,0.001,0.134,0.133,0.068,0.07,0.079,0.071,0.081,0.132,0.135,0.069,0.068,0.066,0.123,0.072,0.065
233,0.001,0.132,0.131,0.067,0.069,0.078,0.069,0.079,0.13,0.133,0.068,0.067,0.065,0.119,0.071,0.064
234,0.001,0.13,0.129,0.066,0.068,0.076,0.068,0.077,0.128,0.131,0.066,0.066,0.064,0.116,0.07,0.063
235,0.001,0.128,0.127,0.065,0.067,0.075,0.067,0.075,0.126,0.129,0.064,0.065,0.062,0.114,0.069,0.061
236,0.001,0.126,0.125,0.064,0.066,0.074,0.066,0.074,0.124,0.127,0.062,0.063,0.061,0.111,0.067,0.06
237,0.001,0.124,0.123,0.063,0.065,0.072,0.065,0.072,0.122,0.125,0.061,0.062,0.06,0.109,0.066,0.059
238,0.001,0.122,0.121,0.062,0.063,0.071,0.064,0.071,0.12,0.123,0.06,0.062,0.059,0.106,0.065,0.058
239,0.001,0.12,0.12,0.061,0.063,0.07,0.063,0.07,0.119,0.121,0.059,0.061,0.059,0.104,0.064,0.058
240,0.001,0.119,0.118,0.06,0.062,0.07,0.062,0.068,0.117,0.12,0.058,0.06,0.058,0.102,0.064,0.057
241,0.001,0.117,0.117,0.059,0.061,0.069,0.062,0.067,0.115,0.118,0.057,0.059,0.057,0.101,0.063,0.056
242,0.001,0.116,0.115,0.058,0.06,0.068,0.061,0.066,0.114,0.117,0.056,0.059,0.056,0.099,0.062,0.055
243,0.001,0.114,0.114,0.058,0.06,0.067,0.06,0.066,0.112,0.115,0.055,0.058,0.056,0.097,0.061,0.055
244,0.001,0.113,0.112,0.057,0.059,0.066,0.059,0.065,0.111,0.114,0.055,0.057,0.055,0.095,0.061,0.054
245,0.001,0.111,0.111,0.056,0.058,0.065,0.059,0.064,0.11,0.112,0.054,0.056,0.054,0.094,0.06,0.053
246,0.001,0.11,0.109,0.056,0.058,0.064,0.058,0.063,0.108,0.111,0.053,0.056,0.054,0.092,0.059,0.053
247,0.001,0.109,0.108,0.055,0.057,0.064,0.058,0.062,0.107,0.109,0.053,0.055,0.053,0.09,0.059,0.052
248,0.001,0.107,0.107,0.054,0.056,0.063,0.057,0.061,0.106,0.108,0.052,0.055,0.053,0.089,0.058,0.052
249,0.001,0.106,0.106,0.054,0.056,0.062,0.056,0.061,0.105,0.107,0.051,0.054,0.052,0.088,0.057,0.051
250,0.001,0.106,0.105,0.054,0.056,0.062,0.056,0.061,0.104,0.106,0.051,0.054,0.052,0.087,0.057,0.051
251,0.001,0.105,0.104,0.053,0.055,0.062,0.056,0.06,0.103,0.105,0.051,0.054,0.052,0.086,0.057,0.051
252,0.001,0.104,0.103,0.053,0.055,0.061,0.055,0.059,0.102,0.104,0.05,0.053,0.051,0.085,0.056,0.05
253,0.001,0.103,0.102,0.052,0.054,0.06,0.055,0.059,0.101,0.103,0.05,0.053,0.051,0.084,0.056,0.05
254,0.001,0.101,0.101,0.052,0.054,0.06,0.054,0.058,0.1,0.102,0.049,0.052,0.05,0.083,0.055,0.049
255,0.001,0.101,0.1,0.051,0.053,0.059,0.054,0.058,0.099,0.101,0.049,0.052,0.05,0.082,0.055,0.049
256,0.001,0.1,0.099,0.051,0.053,0.059,0.054,0.057,0.098,0.1,0.049,0.051,0.05,0.082,0.054,0.049
257,0.001,0.098,0.098,0.051,0.052,0.058,0.053,0.057,0.097,0.099,0.048,0.051,0.049,0.081,0.054,0.048
258,0.001,0.098,0.097,0.05,0.052,0.058,0.052,0.056,0.096,0.098,0.048,0.05,0.049,0.08,0.053,0.048
259,0.001,0.097,0.097,0.05,0.052,0.057,0.052,0.056,0.095,0.097,0.047,0.05,0.048,0.08,0.053,0.047
260,0.001,0.096,0.096,0.049,0.051,0.057,0.052,0.055,0.094,0.096,0.047,0.05,0.048,0.079,0.052,0.047
261,0.001,0.095,0.095,0.049,0.051,0.056,0.051,0.055,0.094,0.095,0.046,0.049,0.048,0.079,0.052,0.047
262,0.001,0.094,0.094,0.048,0.05,0.056,0.051,0.054,0.093,0.094,0.046,0.049,0.047,0.078,0.052,0.046
263,0.001,0.093,0.093,0.048,0.05,0.055,0.05,0.054,0.092,0.093,0.045,0.048,0.046,0.077,0.051,0.046
264,0.001,0.092,0.092,0.047,0.05,0.055,0.05,0.053,0.091,0.092,0.045,0.047,0.046,0.076,0.05,0.045
265,0.001,0.091,0.091,0.047,0.049,0.054,0.049,0.053,0.09,0.091,0.044,0.047,0.045,0.076,0.05,0.045
266,0.001,0.09,0.09,0.046,0.048,0.053,0.048,0.052,0.089,0.09,0.044,0.046,0.045,0.075,0.049,0.044
267,0.001,0.089,0.089,0.046,0.048,0.052,0.048,0.052,0.088,0.089,0.043,0.046,0.044,0.074,0.049,0.043
268,0.001,0.088,0.088,0.045,0.047,0.052,0.047,0.051,0.087,0.088,0.043,0.045,0.044,0.074,0.048,0.043
269,0.001,0.087,0.087,0.044,0.047,0.051,0.047,0.05,0.086,0.087,0.042,0.045,0.043,0.073,0.047,0.043
270,0.001,0.086,0.086,0.044,0.046,0.05,0.046,0.05,0.085,0.086,0.042,0.044,0.042,0.072,0.047,0.042
271,0.001,0.085,0.085,0.043,0.045,0.05,0.045,0.049,0.084,0.085,0.041,0.043,0.042,0.072,0.046,0.041
272,0.001,0.084,0.084,0.042,0.044,0.049,0.045,0.048,0.083,0.084,0.04,0.043,0.041,0.071,0.045,0.04
273,0.001,0.083,0.083,0.042,0.044,0.048,0.044,0.048,0.083,0.083,0.04,0.042,0.04,0.07,0.045,0.04
274,0.001,0.083,0.082,0.041,0.043,0.048,0.043,0.047,0.082,0.082,0.039,0.042,0.04,0.069,0.044,0.039
275,0.001,0.082,0.081,0.04,0.042,0.047,0.042,0.046,0.081,0.081,0.038,0.041,0.039,0.068,0.043,0.038
276,0.001,0.08,0.08,0.039,0.042,0.046,0.042,0.045,0.08,0.08,0.038,0.04,0.038,0.067,0.042,0.038
277,0.001,0.079,0.079,0.039,0.041,0.045,0.041,0.045,0.079,0.08,0.037,0.039,0.037,0.067,0.042,0.037
278,0.001,0.078,0.078,0.038,0.04,0.044,0.04,0.044,0.078,0.079,0.036,0.038,0.037,0.065,0.041,0.036
279,0.001,0.078,0.077,0.037,0.039,0.044,0.039,0.043,0.077,0.078,0.036,0.038,0.036,0.065,0.04,0.035
280,0.001,0.077,0.076,0.036,0.039,0.043,0.039,0.042,0.076,0.077,0.035,0.037,0.035,0.064,0.039,0.035
281,0.001,0.075,0.075,0.036,0.038,0.042,0.038,0.042,0.075,0.076,0.034,0.036,0.034,0.063,0.038,0.034
282,0.001,0.075,0.075,0.035,0.037,0.041,0.037,0.041,0.074,0.075,0.034,0.036,0.034,0.062,0.038,0.033
283,0.001,0.074,0.074,0.034,0.036,0.04,0.036,0.04,0.073,0.074,0.033,0.035,0.033,0.061,0.037,0.033
284,0.001,0.073,0.073,0.033,0.036,0.039,0.036,0.04,0.073,0.073,0.033,0.034,0.032,0.06,0.036,0.032
285,0.001,0.072,0.072,0.032,0.035,0.038,0.035,0.039,0.072,0.072,0.032,0.033,0.031,0.059,0.036,0.031
286,0.001,0.071,0.071,0.032,0.034,0.038,0.034,0.038,0.071,0.071,0.031,0.033,0.031,0.057,0.035,0.03
287,0.001,0.07,0.07,0.031,0.033,0.037,0.033,0.037,0.07,0.07,0.031,0.032,0.03,0.056,0.034,0.03
288,0.001,0.069,0.069,0.03,0.033,0.036,0.033,0.036,0.069,0.069,0.03,0.031,0.029,0.055,0.033,0.029
289,0.001,0.068,0.068,0.03,0.032,0.036,0.032,0.036,0.068,0.068,0.029,0.031,0.029,0.054,0.033,0.029
290,0.001,0.067,0.067,0.029,0.031,0.035,0.031,0.035,0.067,0.067,0.029,0.03,0.028,0.053,0.032,0.028
291,0.001,0.066,0.066,0.028,0.031,0.034,0.031,0.034,0.066,0.066,0.028,0.029,0.027,0.052,0.031,0.027
292,0.001,0.065,0.065,0.028,0.03,0.034,0.03,0.034,0.065,0.065,0.028,0.029,0.027,0.051,0.031,0.027
293,0.001,0.064,0.064,0.027,0.03,0.033,0.03,0.033,0.064,0.064,0.027,0.028,0.026,0.05,0.03,0.026
294,0.001,0.064,0.063,0.026,0.029,0.032,0.029,0.032,0.064,0.063,0.027,0.028,0.025,0.048,0.029,0.025
295,0.001,0.063,0.062,0.026,0.028,0.031,0.028,0.032,0.063,0.062,0.026,0.027,0.025,0.047,0.029,0.025
296,0,0.061,0.061,0.025,0.027,0.031,0.028,0.031,0.062,0.061,0.026,0.026,0.025,0.046,0.028,0.024
297,0.001,0.061,0.061,0.025,0.027,0.03,0.027,0.031,0.061,0.06,0.025,0.026,0.024,0.045,0.028,0.024
298,0.001,0.06,0.06,0.024,0.027,0.03,0.026,0.03,0.06,0.06,0.025,0.025,0.023,0.044,0.027,0.023
299,0,0.059,0.059,0.024,0.026,0.029,0.026,0.029,0.059,0.059,0.024,0.025,0.023,0.043,0.026,0.023
300,0.001,0.059,0.058,0.023,0.026,0.028,0.025,0.029,0.058,0.058,0.024,0.024,0.022,0.043,0.026,0.022
301,0.001,0.058,0.058,0.023,0.025,0.028,0.025,0.028,0.058,0.057,0.023,0.024,0.022,0.042,0.025,0.022
302,0.001,0.057,0.057,0.022,0.025,0.027,0.025,0.028,0.057,0.056,0.023,0.023,0.021,0.041,0.025,0.021
303,0.001,0.056,0.056,0.022,0.024,0.027,0.024,0.027,0.056,0.056,0.023,0.023,0.021,0.04,0.024,0.021
304,0.001,0.055,0.055,0.021,0.024,0.026,0.023,0.027,0.055,0.055,0.022,0.022,0.02,0.039,0.024,0.02
305,0.001,0.054,0.054,0.021,0.023,0.026,0.023,0.026,0.055,0.054,0.022,0.022,0.02,0.038,0.024,0.02
306,0,0.054,0.054,0.021,0.023,0.025,0.023,0.026,0.054,0.053,0.021,0.022,0.02,0.037,0.023,0.02
307,0.001,0.053,0.053,0.02,0.023,0.025,0.022,0.025,0.053,0.052,0.021,0.021,0.019,0.036,0.023,0.019
308,0.001,0.053,0.052,0.02,0.022,0.025,0.022,0.025,0.052,0.052,0.021,0.021,0.019,0.035,0.022,0.019
309,0.001,0.052,0.052,0.019,0.022,0.024,0.022,0.025,0.052,0.051,0.02,0.021,0.019,0.035,0.022,0.018
310,0.001,0.051,0.051,0.019,0.021,0.024,0.021,0.024,0.051,0.05,0.02,0.02,0.018,0.034,0.021,0.018
311,0.001,0.051,0.05,0.019,0.021,0.023,0.021,0.024,0.051,0.049,0.02,0.02,0.018,0.033,0.021,0.018
312,0.001,0.05,0.05,0.018,0.021,0.023,0.02,0.023,0.05,0.049,0.019,0.02,0.018,0.032,0.021,0.018
313,0.001,0.049,0.049,0.018,0.02,0.022,0.02,0.023,0.049,0.048,0.019,0.019,0.017,0.032,0.02,0.017
314,0.001,0.048,0.048,0.018,0.02,0.022,0.02,0.022,0.048,0.047,0.018,0.019,0.017,0.031,0.02,0.017
315,0.001,0.048,0.047,0.017,0.02,0.022,0.02,0.022,0.048,0.047,0.018,0.018,0.017,0.031,0.02,0.017
316,0.001,0.047,0.047,0.017,0.019,0.022,0.019,0.022,0.047,0.046,0.018,0.018,0.016,0.03,0.019,0.016
317,0.001,0.046,0.046,0.017,0.019,0.021,0.019,0.021,0.046,0.046,0.018,0.018,0.016,0.029,0.019,0.016
318,0.001,0.046,0.046,0.017,0.019,0.021,0.019,0.021,0.046,0.045,0.017,0.018,0.016,0.029,0.019,0.016
319,0.001,0.045,0.045,0.016,0.019,0.02,0.018,0.021,0.045,0.044,0.017,0.017,0.015,0.028,0.018,0.015
320,0.001,0.044,0.044,0.016,0.018,0.02,0.018,0.02,0.045,0.044,0.017,0.017,0.015,0.028,0.018,0.015
321,0,0.044,0.044,0.016,0.018,0.02,0.018,0.02,0.044,0.043,0.016,0.017,0.015,0.028,0.018,0.015
322,0.001,0.044,0.044,0.016,0.018,0.02,0.018,0.02,0.044,0.043,0.016,0.017,0.015,0.027,0.018,0.015
323,0,0.043,0.043,0.015,0.017,0.019,0.017,0.019,0.043,0.042,0.016,0.016,0.014,0.027,0.017,0.014
324,0,0.042,0.042,0.015,0.017,0.019,0.017,0.019,0.042,0.041,0.016,0.016,0.014,0.027,0.017,0.014
325,0.001,0.042,0.042,0.015,0.017,0.019,0.017,0.019,0.042,0.041,0.015,0.016,0.014,0.026,0.017,0.014
326,0.001,0.041,0.041,0.015,0.017,0.019,0.017,0.019,0.042,0.04,0.015,0.016,0.014,0.026,0.017,0.014
327,0.001,0.041,0.04,0.014,0.017,0.018,0.016,0.018,0.041,0.04,0.015,0.015,0.013,0.025,0.016,0.014
328,0.001,0.04,0.04,0.014,0.017,0.018,0.016,0.018,0.04,0.039,0.015,0.015,0.013,0.025,0.016,0.014
329,0.001,0.04,0.039,0.014,0.016,0.018,0.016,0.018,0.04,0.039,0.015,0.015,0.013,0.024,0.016,0.013
330,0,0.039,0.039,0.013,0.016,0.017,0.016,0.017,0.039,0.038,0.014,0.015,0.013,0.024,0.015,0.013
331,0,0.038,0.038,0.013,0.016,0.017,0.015,0.017,0.039,0.037,0.014,0.015,0.013,0.024,0.015,0.013
332,0.001,0.038,0.038,0.013,0.016,0.017,0.015,0.017,0.038,0.037,0.014,0.014,0.012,0.023,0.015,0.013
333,0.001,0.038,0.037,0.013,0.015,0.017,0.015,0.017,0.038,0.036,0.014,0.014,0.012,0.023,0.015,0.013
334,0.001,0.037,0.037,0.013,0.015,0.016,0.015,0.016,0.037,0.036,0.013,0.014,0.012,0.023,0.015,0.012
335,0.001,0.037,0.036,0.013,0.015,0.016,0.015,0.016,0.037,0.035,0.013,0.013,0.012,0.022,0.014,0.012
336,0.001,0.036,0.036,0.013,0.015,0.016,0.014,0.016,0.036,0.035,0.013,0.013,0.012,0.021,0.014,0.012
337,0,0.035,0.035,0.012,0.015,0.015,0.014,0.016,0.035,0.034,0.012,0.013,0.011,0.021,0.014,0.012
338,0,0.035,0.035,0.012,0.014,0.015,0.014,0.015,0.035,0.033,0.012,0.013,0.011,0.021,0.013,0.011
339,0.001,0.035,0.034,0.012,0.015,0.015,0.014,0.015,0.035,0.033,0.013,0.013,0.011,0.021,0.014,0.012
340,0.002,0.035,0.035,0.013,0.015,0.016,0.015,0.016,0.036,0.034,0.013,0.013,0.012,0.022,0.014,0.012
341,0.001,0.034,0.033,0.012,0.014,0.015,0.014,0.015,0.034,0.032,0.012,0.012,0.011,0.02,0.013,0.012
342,0.001,0.033,0.033,0.011,0.013,0.014,0.013,0.014,0.034,0.032,0.012,0.012,0.011,0.02,0.013,0.011
343,0,0.032,0.032,0.011,0.013,0.014,0.013,0.014,0.033,0.031,0.011,0.012,0.01,0.019,0.013,0.01
344,0.001,0.032,0.032,0.011,0.013,0.015,0.013,0.014,0.033,0.031,0.012,0.012,0.01,0.019,0.013,0.011
345,0,0.031,0.031,0.011,0.013,0.014,0.013,0.014,0.032,0.03,0.011,0.012,0.01,0.019,0.012,0.01
346,0,0.031,0.031,0.011,0.013,0.014,0.012,0.013,0.032,0.03,0.011,0.011,0.01,0.018,0.012,0.01
347,0,0.03,0.03,0.011,0.013,0.013,0.012,0.013,0.032,0.03,0.011,0.011,0.01,0.018,0.012,0.01
348,0,0.03,0.03,0.01,0.013,0.013,0.012,0.013,0.031,0.029,0.011,0.011,0.01,0.018,0.012,0.01
349,0,0.03,0.029,0.01,0.012,0.013,0.013,0.013,0.03,0.029,0.011,0.011,0.01,0.018,0.012,0.01
350,0,0.029,0.029,0.01,0.012,0.013,0.012,0.013,0.03,0.028,0.011,0.011,0.009,0.017,0.012,0.01
351,0,0.029,0.028,0.01,0.012,0.013,0.012,0.012,0.03,0.028,0.01,0.011,0.009,0.017,0.011,0.009
352,0.001,0.029,0.028,0.01,0.012,0.012,0.012,0.012,0.029,0.028,0.01,0.011,0.009,0.017,0.011,0.009
353,0.001,0.028,0.028,0.01,0.012,0.012,0.012,0.012,0.029,0.027,0.01,0.01,0.009,0.017,0.011,0.009
354,0,0.027,0.027,0.009,0.012,0.012,0.012,0.012,0.028,0.027,0.01,0.01,0.009,0.016,0.011,0.009
355,0,0.027,0.027,0.009,0.011,0.012,0.011,0.012,0.028,0.026,0.009,0.01,0.008,0.016,0.01,0.009
356,0,0.027,0.026,0.009,0.011,0.012,0.011,0.011,0.027,0.025,0.009,0.009,0.008,0.016,0.01,0.009
357,0,0.026,0.026,0.009,0.011,0.012,0.011,0.011,0.027,0.025,0.009,0.009,0.009,0.015,0.01,0.008
358,0,0.026,0.025,0.009,0.011,0.011,0.01,0.011,0.027,0.025,0.009,0.009,0.008,0.015,0.01,0.009
359,0,0.025,0.025,0.008,0.011,0.011,0.01,0.011,0.026,0.024,0.009,0.009,0.008,0.015,0.01,0.008
360,0,0.025,0.025,0.008,0.011,0.011,0.01,0.011,0.026,0.024,0.009,0.009,0.008,0.015,0.01,0.008
361,0,0.025,0.024,0.008,0.011,0.011,0.01,0.011,0.026,0.024,0.009,0.009,0.008,0.015,0.01,0.008
362,0.001,0.024,0.024,0.008,0.01,0.011,0.01,0.011,0.025,0.023,0.009,0.009,0.008,0.015,0.01,0.008
363,0,0.024,0.023,0.008,0.01,0.01,0.01,0.01,0.025,0.023,0.008,0.009,0.007,0.014,0.01,0.008
364,0.001,0.024,0.023,0.008,0.01,0.01,0.01,0.01,0.025,0.023,0.008,0.008,0.008,0.014,0.01,0.008
365,0,0.023,0.023,0.008,0.01,0.01,0.01,0.01,0.024,0.022,0.008,0.008,0.007,0.014,0.009,0.008
366,0,0.023,0.023,0.008,0.01,0.01,0.01,0.01,0.024,0.022,0.008,0.008,0.007,0.014,0.009,0.008
367,0,0.023,0.022,0.008,0.01,0.01,0.01,0.01,0.024,0.022,0.008,0.008,0.007,0.013,0.009,0.008
368,0,0.022,0.022,0.008,0.01,0.01,0.009,0.009,0.023,0.021,0.008,0.008,0.007,0.013,0.009,0.007
369,0,0.022,0.022,0.007,0.01,0.01,0.009,0.01,0.023,0.021,0.008,0.008,0.007,0.013,0.009,0.007
370,0,0.022,0.021,0.007,0.009,0.009,0.009,0.009,0.022,0.02,0.007,0.008,0.006,0.013,0.009,0.007
371,0,0.021,0.021,0.007,0.01,0.009,0.009,0.009,0.022,0.02,0.007,0.008,0.006,0.012,0.008,0.007
372,0,0.021,0.021,0.007,0.009,0.009,0.009,0.009,0.022,0.02,0.007,0.008,0.006,0.012,0.008,0.007
373,0,0.021,0.02,0.007,0.009,0.009,0.009,0.009,0.022,0.02,0.007,0.008,0.006,0.012,0.008,0.007
374,0,0.021,0.02,0.007,0.009,0.009,0.009,0.009,0.021,0.019,0.007,0.008,0.006,0.012,0.008,0.007
375,0,0.02,0.02,0.007,0.009,0.009,0.009,0.009,0.021,0.019,0.007,0.007,0.006,0.012,0.008,0.007
376,0,0.02,0.02,0.007,0.009,0.009,0.008,0.008,0.021,0.019,0.007,0.007,0.006,0.012,0.008,0.006
377,0,0.02,0.019,0.007,0.009,0.009,0.009,0.008,0.021,0.019,0.007,0.007,0.006,0.012,0.008,0.007
378,0,0.019,0.019,0.006,0.009,0.009,0.009,0.008,0.02,0.018,0.007,0.007,0.006,0.012,0.008,0.007
379,0,0.019,0.019,0.006,0.009,0.008,0.008,0.008,0.02,0.018,0.007,0.007,0.006,0.011,0.008,0.006
380,0,0.019,0.019,0.006,0.008,0.008,0.008,0.008,0.02,0.018,0.006,0.007,0.006,0.011,0.008,0.006
381,0,0.019,0.019,0.006,0.008,0.008,0.008,0.008,0.019,0.017,0.006,0.007,0.006,0.011,0.007,0.006
382,0,0.018,0.018,0.006,0.008,0.008,0.008,0.008,0.019,0.017,0.006,0.007,0.005,0.011,0.008,0.006
383,0,0.018,0.018,0.006,0.008,0.008,0.008,0.007,0.019,0.017,0.006,0.007,0.005,0.011,0.007,0.006
384,0,0.018,0.018,0.006,0.008,0.008,0.008,0.007,0.018,0.016,0.006,0.006,0.006,0.01,0.007,0.006
385,0,0.018,0.017,0.006,0.008,0.008,0.008,0.007,0.018,0.016,0.006,0.006,0.005,0.01,0.007,0.006
386,0,0.017,0.017,0.006,0.008,0.008,0.008,0.007,0.018,0.016,0.006,0.006,0.005,0.01,0.007,0.006
387,0,0.017,0.017,0.006,0.008,0.008,0.008,0.007,0.018,0.016,0.006,0.006,0.005,0.01,0.007,0.006
388,0,0.017,0.017,0.006,0.008,0.008,0.008,0.007,0.017,0.016,0.006,0.006,0.005,0.01,0.007,0.006
389,0,0.017,0.016,0.005,0.008,0.007,0.007,0.007,0.017,0.015,0.006,0.006,0.005,0.01,0.007,0.006
390,0,0.016,0.016,0.005,0.008,0.007,0.007,0.007,0.017,0.015,0.005,0.006,0.005,0.009,0.007,0.005
391,0,0.016,0.016,0.005,0.007,0.007,0.007,0.007,0.017,0.015,0.005,0.006,0.005,0.009,0.007,0.005
392,0,0.016,0.016,0.005,0.007,0.007,0.007,0.007,0.017,0.015,0.005,0.006,0.005,0.009,0.006,0.005
393,0,0.016,0.015,0.005,0.007,0.007,0.007,0.006,0.016,0.014,0.005,0.005,0.005,0.009,0.006,0.005
394,0,0.015,0.015,0.005,0.007,0.007,0.007,0.006,0.016,0.014,0.005,0.005,0.005,0.009,0.006,0.005
395,0,0.015,0.015,0.005,0.007,0.007,0.007,0.006,0.016,0.014,0.005,0.005,0.005,0.009,0.006,0.005
396,0,0.015,0.015,0.005,0.007,0.007,0.007,0.006,0.016,0.014,0.005,0.005,0.005,0.009,0.006,0.005
397,0,0.015,0.015,0.005,0.007,0.006,0.007,0.006,0.015,0.013,0.005,0.005,0.004,0.009,0.006,0.005
398,0,0.015,0.014,0.005,0.007,0.006,0.007,0.006,0.015,0.013,0.005,0.005,0.004,0.008,0.006,0.005
399,0,0.014,0.014,0.005,0.007,0.006,0.007,0.006,0.015,0.013,0.005,0.005,0.004,0.008,0.006,0.005
400,0,0.014,0.014,0.005,0.007,0.006,0.006,0.006,0.015,0.013,0.005,0.005,0.004,0.008,0.006,0.005
401,0,0.014,0.014,0.005,0.007,0.006,0.006,0.006,0.015,0.013,0.005,0.005,0.004,0.008,0.006,0.005
402,0,0.014,0.014,0.005,0.007,0.006,0.006,0.006,0.015,0.013,0.005,0.005,0.004,0.008,0.006,0.005
403,0,0.014,0.014,0.005,0.007,0.006,0.006,0.006,0.014,0.012,0.004,0.005,0.004,0.008,0.006,0.005
404,0,0.014,0.013,0.005,0.007,0.006,0.006,0.006,0.014,0.012,0.004,0.005,0.004,0.008,0.006,0.005
405,0,0.013,0.013,0.004,0.007,0.006,0.006,0.005,0.014,0.012,0.004,0.005,0.004,0.008,0.006,0.005
406,0,0.013,0.013,0.004,0.007,0.006,0.006,0.006,0.014,0.012,0.004,0.005,0.004,0.008,0.006,0.005
407,0,0.013,0.013,0.004,0.007,0.006,0.006,0.005,0.014,0.012,0.004,0.005,0.004,0.007,0.006,0.005
408,0,0.013,0.013,0.004,0.007,0.006,0.006,0.005,0.014,0.012,0.004,0.004,0.004,0.007,0.005,0.004
409,0,0.013,0.013,0.004,0.007,0.006,0.006,0.005,0.013,0.012,0.004,0.004,0.004,0.007,0.005,0.004
410,0,0.013,0.012,0.004,0.006,0.005,0.006,0.005,0.013,0.011,0.004,0.004,0.004,0.007,0.005,0.004
411,0,0.012,0.012,0.004,0.006,0.006,0.006,0.005,0.013,0.011,0.004,0.004,0.004,0.007,0.005,0.004
412,0,0.012,0.012,0.004,0.006,0.005,0.006,0.005,0.013,0.011,0.004,0.004,0.004,0.007,0.005,0.004
413,0,0.012,0.012,0.004,0.006,0.005,0.006,0.005,0.013,0.011,0.004,0.004,0.003,0.007,0.005,0.004
414,0,0.012,0.012,0.004,0.006,0.005,0.006,0.005,0.013,0.011,0.004,0.004,0.003,0.007,0.005,0.004
415,0,0.012,0.012,0.004,0.006,0.005,0.006,0.005,0.013,0.011,0.004,0.004,0.003,0.007,0.005,0.004
416,0,0.012,0.012,0.004,0.006,0.005,0.006,0.005,0.012,0.011,0.004,0.004,0.003,0.007,0.005,0.004
417,0,0.012,0.011,0.004,0.006,0.005,0.005,0.005,0.012,0.01,0.004,0.004,0.003,0.007,0.005,0.004
418,0,0.011,0.011,0.004,0.006,0.005,0.005,0.005,0.012,0.01,0.004,0.004,0.003,0.007,0.005,0.004
419,0,0.011,0.011,0.004,0.006,0.005,0.006,0.005,0.012,0.01,0.004,0.004,0.003,0.007,0.005,0.004
420,0,0.011,0.011,0.004,0.006,0.005,0.005,0.005,0.012,0.01,0.004,0.004,0.003,0.006,0.005,0.004
421,0,0.011,0.011,0.004,0.006,0.005,0.005,0.005,0.012,0.01,0.004,0.004,0.003,0.006,0.005,0.004
422,0,0.011,0.011,0.004,0.006,0.005,0.005,0.005,0.012,0.01,0.004,0.004,0.003,0.006,0.005,0.004
423,0,0.011,0.011,0.003,0.006,0.005,0.005,0.005,0.012,0.01,0.004,0.004,0.003,0.006,0.005,0.004
424,0,0.011,0.011,0.003,0.006,0.005,0.005,0.004,0.012,0.01,0.004,0.004,0.003,0.006,0.005,0.004
425,0,0.011,0.011,0.003,0.006,0.005,0.005,0.004,0.012,0.009,0.004,0.004,0.003,0.006,0.005,0.004
426,0,0.011,0.01,0.003,0.006,0.005,0.005,0.004,0.011,0.009,0.004,0.004,0.003,0.006,0.005,0.004
427,0,0.01,0.01,0.003,0.006,0.005,0.005,0.004,0.011,0.009,0.003,0.004,0.003,0.006,0.004,0.004
428,0,0.01,0.01,0.003,0.006,0.005,0.005,0.004,0.011,0.009,0.003,0.003,0.003,0.006,0.004,0.003
429,0,0.01,0.01,0.003,0.006,0.004,0.005,0.004,0.011,0.009,0.003,0.003,0.003,0.006,0.004,0.003
430,0,0.01,0.01,0.003,0.006,0.004,0.005,0.004,0.011,0.009,0.003,0.003,0.003,0.006,0.004,0.004
431,0,0.01,0.01,0.003,0.006,0.004,0.005,0.004,0.011,0.009,0.003,0.003,0.003,0.006,0.004,0.004
432,0,0.01,0.01,0.003,0.006,0.004,0.005,0.004,0.011,0.008,0.003,0.003,0.003,0.005,0.004,0.003
433,0,0.01,0.01,0.003,0.006,0.004,0.005,0.004,0.01,0.008,0.003,0.003,0.003,0.005,0.004,0.003
434,0,0.01,0.01,0.003,0.005,0.004,0.005,0.004,0.01,0.008,0.003,0.003,0.003,0.005,0.004,0.003
435,0,0.009,0.009,0.003,0.005,0.004,0.005,0.004,0.01,0.008,0.003,0.003,0.003,0.005,0.004,0.003
436,0,0.009,0.009,0.003,0.005,0.004,0.005,0.004,0.01,0.008,0.003,0.003,0.003,0.005,0.004,0.003
437,0,0.009,0.009,0.003,0.005,0.004,0.004,0.004,0.01,0.008,0.003,0.003,0.003,0.005,0.004,0.003
438,0,0.009,0.009,0.003,0.005,0.004,0.005,0.004,0.01,0.008,0.003,0.003,0.003,0.005,0.004,0.003
439,0,0.009,0.009,0.003,0.005,0.004,0.004,0.004,0.01,0.008,0.003,0.003,0.003,0.005,0.004,0.003
440,0,0.009,0.009,0.003,0.005,0.004,0.004,0.004,0.01,0.008,0.003,0.003,0.002,0.005,0.004,0.003
441,0,0.009,0.009,0.003,0.005,0.004,0.004,0.004,0.01,0.008,0.003,0.003,0.002,0.005,0.004,0.003
442,0,0.009,0.009,0.003,0.005,0.004,0.004,0.004,0.009,0.007,0.003,0.003,0.002,0.005,0.004,0.003
443,0,0.009,0.008,0.003,0.005,0.004,0.004,0.004,0.009,0.007,0.003,0.003,0.002,0.005,0.004,0.003
444,0,0.009,0.008,0.003,0.005,0.004,0.004,0.004,0.009,0.007,0.003,0.003,0.002,0.005,0.004,0.003
445,0,0.008,0.008,0.003,0.005,0.004,0.004,0.003,0.009,0.007,0.003,0.003,0.002,0.005,0.004,0.003
446,0,0.008,0.008,0.003,0.005,0.003,0.004,0.003,0.009,0.007,0.003,0.003,0.002,0.004,0.003,0.003
447,0,0.008,0.008,0.003,0.005,0.003,0.004,0.003,0.009,0.007,0.003,0.003,0.002,0.004,0.004,0.003
448,0,0.008,0.008,0.002,0.005,0.003,0.004,0.003,0.009,0.007,0.003,0.003,0.002,0.004,0.003,0.003
449,0,0.008,0.008,0.003,0.005,0.003,0.004,0.003,0.009,0.007,0.003,0.003,0.002,0.004,0.004,0.003
450,0,0.008,0.008,0.003,0.005,0.003,0.004,0.003,0.009,0.007,0.003,0.003,0.002,0.004,0.004,0.003
451,0,0.008,0.008,0.003,0.005,0.003,0.004,0.003,0.009,0.007,0.003,0.003,0.002,0.004,0.004,0.003
452,0,0.008,0.008,0.002,0.005,0.003,0.004,0.003,0.009,0.007,0.003,0.003,0.002,0.004,0.003,0.003
453,0,0.008,0.008,0.002,0.005,0.003,0.004,0.003,0.008,0.006,0.002,0.002,0.002,0.004,0.003,0.003
454,0,0.008,0.008,0.002,0.005,0.003,0.004,0.003,0.008,0.006,0.002,0.002,0.002,0.004,0.003,0.003
455,0,0.008,0.008,0.002,0.005,0.003,0.004,0.003,0.008,0.006,0.002,0.003,0.002,0.004,0.003,0.003
456,0,0.008,0.008,0.002,0.005,0.003,0.004,0.003,0.008,0.006,0.002,0.003,0.002,0.004,0.003,0.003
457,0,0.008,0.008,0.002,0.005,0.003,0.004,0.003,0.008,0.006,0.002,0.003,0.002,0.004,0.003,0.003
458,0,0.008,0.007,0.002,0.004,0.003,0.004,0.003,0.008,0.006,0.002,0.002,0.002,0.004,0.003,0.003
459,0,0.008,0.007,0.002,0.005,0.003,0.004,0.003,0.008,0.006,0.002,0.002,0.002,0.004,0.003,0.002
460,0,0.007,0.007,0.002,0.005,0.003,0.004,0.003,0.008,0.006,0.002,0.002,0.002,0.004,0.003,0.003
461,0,0.007,0.007,0.002,0.005,0.003,0.004,0.003,0.008,0.006,0.002,0.002,0.002,0.004,0.003,0.003
462,0,0.007,0.007,0.002,0.004,0.003,0.004,0.003,0.008,0.006,0.002,0.002,0.002,0.004,0.003,0.003
463,0,0.007,0.007,0.002,0.004,0.003,0.004,0.003,0.008,0.006,0.002,0.002,0.002,0.004,0.003,0.003
464,0,0.007,0.007,0.002,0.004,0.003,0.004,0.003,0.008,0.006,0.002,0.002,0.002,0.004,0.003,0.003
465,0,0.007,0.007,0.002,0.004,0.003,0.004,0.003,0.008,0.006,0.002,0.002,0.002,0.004,0.003,0.002
466,0,0.007,0.007,0.002,0.004,0.003,0.004,0.003,0.008,0.006,0.002,0.002,0.002,0.004,0.003,0.002
467,0,0.007,0.007,0.002,0.004,0.003,0.004,0.003,0.008,0.006,0.002,0.002,0.002,0.004,0.003,0.002
468,0,0.007,0.007,0.002,0.004,0.003,0.004,0.003,0.008,0.005,0.002,0.002,0.002,0.004,0.003,0.002
469,0,0.007,0.007,0.002,0.004,0.003,0.004,0.003,0.008,0.005,0.002,0.002,0.002,0.004,0.003,0.002
470,0,0.007,0.007,0.002,0.004,0.003,0.004,0.003,0.008,0.005,0.002,0.002,0.002,0.003,0.003,0.002
471,0,0.007,0.007,0.002,0.004,0.003,0.004,0.003,0.007,0.005,0.002,0.002,0.002,0.003,0.003,0.002
472,0,0.007,0.007,0.002,0.004,0.003,0.003,0.003,0.007,0.005,0.002,0.002,0.002,0.003,0.003,0.002
473,0,0.007,0.007,0.002,0.004,0.003,0.004,0.003,0.007,0.005,0.002,0.002,0.002,0.003,0.003,0.002
474,0,0.007,0.006,0.002,0.004,0.003,0.003,0.003,0.007,0.005,0.002,0.002,0.002,0.003,0.003,0.002
475,0,0.007,0.006,0.002,0.004,0.003,0.003,0.003,0.007,0.005,0.002,0.002,0.002,0.003,0.003,0.002
476,0,0.007,0.006,0.002,0.004,0.003,0.003,0.003,0.007,0.005,0.002,0.002,0.002,0.003,0.003,0.002
477,0,0.006,0.006,0.002,0.004,0.003,0.003,0.003,0.007,0.005,0.002,0.002,0.002,0.003,0.003,0.002
478,0,0.006,0.006,0.002,0.004,0.003,0.003,0.002,0.007,0.005,0.002,0.002,0.001,0.003,0.003,0.002
479,0,0.006,0.006,0.002,0.004,0.003,0.003,0.002,0.007,0.005,0.002,0.002,0.001,0.003,0.003,0.002
480,0,0.006,0.006,0.002,0.004,0.003,0.003,0.002,0.007,0.005,0.002,0.002,0.002,0.003,0.003,0.002
481,0,0.006,0.006,0.002,0.004,0.003,0.003,0.002,0.007,0.004,0.002,0.002,0.002,0.003,0.003,0.002
482,0,0.006,0.006,0.002,0.004,0.003,0.003,0.002,0.007,0.004,0.002,0.002,0.002,0.003,0.003,0.002
483,0,0.006,0.006,0.002,0.004,0.002,0.003,0.002,0.007,0.004,0.002,0.002,0.002,0.003,0.003,0.002
484,0,0.006,0.006,0.002,0.004,0.002,0.003,0.002,0.007,0.004,0.002,0.002,0.001,0.003,0.003,0.002
485,0,0.006,0.006,0.002,0.004,0.002,0.003,0.002,0.007,0.004,0.002,0.002,0.001,0.003,0.003,0.002
486,0,0.006,0.006,0.002,0.004,0.002,0.003,0.002,0.007,0.004,0.002,0.002,0.002,0.003,0.003,0.002
487,0,0.006,0.006,0.002,0.004,0.002,0.003,0.002,0.007,0.004,0.002,0.002,0.001,0.003,0.002,0.002
488,0,0.006,0.006,0.002,0.004,0.002,0.003,0.002,0.007,0.004,0.001,0.002,0.001,0.003,0.002,0.002
489,0,0.006,0.006,0.002,0.004,0.002,0.003,0.002,0.006,0.004,0.001,0.001,0.001,0.003,0.002,0.002
490,0,0.006,0.006,0.002,0.004,0.002,0.003,0.002,0.006,0.004,0.001,0.002,0.001,0.003,0.002,0.002
491,0,0.006,0.005,0.002,0.004,0.002,0.003,0.002,0.006,0.004,0.001,0.001,0.001,0.003,0.002,0.002
492,0,0.006,0.006,0.002,0.004,0.002,0.003,0.002,0.006,0.004,0.001,0.002,0.001,0.003,0.003,0.002
493,0,0.006,0.006,0.002,0.004,0.002,0.003,0.002,0.006,0.004,0.002,0.002,0.001,0.003,0.002,0.002
494,0,0.006,0.006,0.002,0.004,0.002,0.003,0.002,0.006,0.004,0.002,0.002,0.001,0.003,0.002,0.002
495,0,0.006,0.006,0.002,0.004,0.002,0.003,0.002,0.006,0.004,0.002,0.002,0.001,0.003,0.002,0.002
496,0,0.006,0.005,0.002,0.004,0.002,0.003,0.002,0.006,0.004,0.002,0.002,0.001,0.003,0.002,0.002
497,0,0.006,0.006,0.002,0.004,0.002,0.003,0.002,0.006,0.004,0.002,0.002,0.001,0.003,0.002,0.002
498,0,0.006,0.005,0.002,0.004,0.002,0.003,0.002,0.006,0.004,0.002,0.002,0.001,0.003,0.002,0.002
499,0,0.005,0.005,0.002,0.004,0.002,0.003,0.002,0.006,0.004,0.002,0.002,0.001,0.003,0.002,0.002
500,0,0.005,0.005,0.002,0.004,0.002,0.003,0.002,0.006,0.004,0.002,0.002,0.001,0.003,0.003,0.002
501,0,0.006,0.005,0.002,0.004,0.002,0.003,0.002,0.006,0.004,0.002,0.002,0.001,0.003,0.003,0.002
502,0,0.005,0.005,0.002,0.004,0.002,0.003,0.002,0.006,0.004,0.002,0.002,0.001,0.003,0.003,0.002
503,0,0.005,0.005,0.002,0.004,0.002,0.003,0.002,0.006,0.004,0.002,0.002,0.001,0.003,0.002,0.002
504,0,0.005,0.005,0.002,0.004,0.002,0.003,0.002,0.006,0.004,0.002,0.002,0.001,0.003,0.002,0.002
505,0,0.005,0.005,0.002,0.004,0.002,0.003,0.002,0.006,0.004,0.002,0.002,0.001,0.003,0.002,0.002
506,0,0.005,0.005,0.002,0.004,0.002,0.003,0.002,0.006,0.004,0.002,0.002,0.001,0.003,0.002,0.002
507,0,0.005,0.005,0.002,0.004,0.002,0.003,0.002,0.006,0.004,0.002,0.002,0.001,0.003,0.002,0.002
508,0,0.005,0.005,0.002,0.004,0.002,0.003,0.002,0.006,0.004,0.002,0.002,0.001,0.003,0.002,0.002
509,0,0.005,0.005,0.001,0.004,0.002,0.003,0.002,0.006,0.004,0.002,0.002,0.001,0.003,0.002,0.002
510,0,0.005,0.005,0.001,0.003,0.002,0.003,0.002,0.006,0.004,0.002,0.002,0.001,0.003,0.002,0.002
511,0,0.005,0.005,0.002,0.004,0.002,0.003,0.002,0.006,0.003,0.002,0.002,0.001,0.003,0.002,0.002
512,0,0.005,0.005,0.002,0.004,0.002,0.003,0.002,0.006,0.004,0.002,0.002,0.001,0.003,0.002,0.002
513,0,0.005,0.005,0.001,0.003,0.002,0.003,0.002,0.006,0.003,0.002,0.002,0.001,0.003,0.002,0.002
514,0,0.005,0.005,0.001,0.003,0.002,0.003,0.002,0.006,0.003,0.002,0.002,0.001,0.003,0.002,0.002
515,0,0.005,0.005,0.001,0.003,0.002,0.003,0.002,0.006,0.003,0.001,0.001,0.001,0.002,0.002,0.002
516,0,0.005,0.005,0.001,0.003,0.002,0.003,0.002,0.006,0.003,0.002,0.002,0.001,0.003,0.002,0.002
517,0,0.005,0.005,0.001,0.003,0.002,0.003,0.002,0.006,0.003,0.001,0.001,0.001,0.002,0.002,0.002
518,0,0.005,0.005,0.001,0.003,0.002,0.003,0.002,0.006,0.003,0.001,0.001,0.001,0.002,0.002,0.002
519,0,0.005,0.005,0.001,0.003,0.002,0.003,0.002,0.006,0.003,0.001,0.001,0.001,0.002,0.002,0.002
520,0,0.005,0.005,0.001,0.003,0.002,0.003,0.002,0.006,0.003,0.001,0.001,0.001,0.002,0.002,0.002
521,0,0.005,0.005,0.001,0.003,0.002,0.003,0.002,0.006,0.003,0.001,0.001,0.001,0.002,0.002,0.002
522,0,0.005,0.005,0.001,0.003,0.002,0.003,0.002,0.005,0.003,0.001,0.001,0.001,0.002,0.002,0.002
523,0,0.005,0.005,0.001,0.003,0.002,0.003,0.002,0.005,0.003,0.001,0.001,0.001,0.002,0.002,0.002
524,0,0.005,0.005,0.001,0.003,0.002,0.003,0.002,0.005,0.003,0.001,0.001,0.001,0.002,0.002,0.002
525,0,0.005,0.005,0.001,0.003,0.002,0.003,0.002,0.005,0.003,0.001,0.001,0.001,0.002,0.002,0.002
526,0,0.005,0.005,0.001,0.003,0.002,0.003,0.002,0.005,0.003,0.001,0.001,0.001,0.002,0.002,0.002
527,0,0.005,0.005,0.001,0.003,0.002,0.003,0.002,0.005,0.003,0.001,0.001,0.001,0.002,0.002,0.002
528,0,0.005,0.005,0.001,0.003,0.002,0.003,0.002,0.005,0.003,0.001,0.001,0.001,0.002,0.002,0.002
529,0,0.005,0.005,0.001,0.003,0.002,0.003,0.002,0.005,0.003,0.001,0.001,0.001,0.002,0.002,0.002
530,0,0.004,0.004,0.001,0.003,0.002,0.002,0.002,0.005,0.003,0.001,0.001,0.001,0.002,0.002,0.002
531,0,0.004,0.004,0.001,0.003,0.002,0.002,0.002,0.005,0.003,0.001,0.001,0.001,0.002,0.002,0.002
532,0,0.004,0.004,0.001,0.003,0.002,0.002,0.002,0.005,0.003,0.001,0.001,0.001,0.002,0.002,0.001
533,0,0.004,0.004,0.001,0.003,0.002,0.003,0.002,0.005,0.003,0.001,0.001,0.001,0.002,0.002,0.002
534,0,0.004,0.004,0.001,0.003,0.002,0.003,0.002,0.005,0.003,0.001,0.001,0.001,0.002,0.002,0.002
535,0,0.005,0.005,0.002,0.003,0.002,0.003,0.002,0.005,0.003,0.001,0.001,0.001,0.002,0.002,0.002
536,0.001,0.005,0.005,0.002,0.004,0.003,0.004,0.003,0.006,0.004,0.002,0.002,0.002,0.003,0.003,0.003
537,0,0.004,0.004,0.001,0.003,0.002,0.003,0.002,0.005,0.003,0.001,0.001,0.001,0.002,0.002,0.002
538,0,0.004,0.004,0.001,0.003,0.002,0.002,0.002,0.005,0.003,0.001,0.001,0.001,0.002,0.002,0.002
539,0,0.004,0.004,0.001,0.003,0.001,0.002,0.002,0.005,0.003,0.001,0.001,0.001,0.002,0.002,0.002
540,0,0.004,0.004,0.001,0.003,0.002,0.002,0.002,0.005,0.003,0.001,0.001,0.001,0.002,0.002,0.002
541,0,0.004,0.004,0.001,0.003,0.002,0.002,0.002,0.005,0.003,0.001,0.001,0.001,0.002,0.002,0.002
542,0,0.004,0.004,0.001,0.003,0.002,0.002,0.002,0.005,0.003,0.001,0.001,0.001,0.002,0.002,0.002
543,0,0.004,0.004,0.001,0.003,0.002,0.002,0.002,0.005,0.003,0.001,0.001,0.001,0.002,0.002,0.002
544,0,0.004,0.004,0.001,0.003,0.002,0.002,0.002,0.005,0.003,0.001,0.001,0.001,0.002,0.002,0.002
545,0,0.004,0.004,0.001,0.003,0.001,0.002,0.002,0.005,0.003,0.001,0.001,0.001,0.002,0.002,0.002
546,0,0.004,0.004,0.001,0.003,0.001,0.002,0.002,0.005,0.002,0.001,0.001,0.001,0.002,0.002,0.001
547,0,0.004,0.004,0.001,0.003,0.001,0.002,0.002,0.005,0.002,0.001,0.001,0.001,0.002,0.002,0.001
548,0,0.004,0.004,0.001,0.003,0.001,0.002,0.002,0.005,0.002,0.001,0.001,0.001,0.002,0.002,0.001
549,0,0.004,0.004,0.001,0.003,0.001,0.002,0.002,0.005,0.002,0.001,0.001,0.001,0.002,0.002,0.001
550,0,0.004,0.004,0.001,0.003,0.001,0.002,0.002,0.005,0.002,0.001,0.001,0.001,0.002,0.002,0.001
551,0,0.004,0.004,0.001,0.003,0.001,0.002,0.002,0.005,0.002,0.001,0.001,0.001,0.002,0.002,0.001
552,0,0.004,0.004,0.001,0.003,0.002,0.002,0.002,0.005,0.002,0.001,0.001,0.001,0.002,0.002,0.001
553,0,0.004,0.004,0.001,0.003,0.001,0.002,0.002,0.004,0.002,0.001,0.001,0.001,0.002,0.002,0.001
554,0,0.004,0.004,0.001,0.003,0.001,0.002,0.002,0.004,0.002,0.001,0.001,0.001,0.002,0.002,0.001
555,0,0.004,0.004,0.001,0.003,0.001,0.002,0.002,0.004,0.002,0.001,0.001,0.001,0.002,0.002,0.001
556,0,0.004,0.004,0.001,0.003,0.001,0.002,0.002,0.004,0.002,0.001,0.001,0.001,0.002,0.002,0.001
557,0,0.004,0.004,0.001,0.003,0.001,0.002,0.002,0.004,0.002,0.001,0.001,0.001,0.002,0.002,0.001
558,0,0.004,0.004,0.001,0.003,0.001,0.002,0.002,0.004,0.002,0.001,0.001,0.001,0.002,0.002,0.001
559,0,0.004,0.004,0.001,0.003,0.001,0.002,0.002,0.004,0.002,0.001,0.001,0.001,0.002,0.002,0.001
560,0,0.004,0.004,0.001,0.003,0.001,0.002,0.001,0.004,0.002,0.001,0.001,0.001,0.002,0.002,0.001
561,0,0.004,0.004,0.001,0.003,0.001,0.002,0.001,0.004,0.002,0.001,0.001,0.001,0.002,0.002,0.001
562,0,0.004,0.004,0.001,0.003,0.001,0.002,0.002,0.004,0.002,0.001,0.001,0.001,0.002,0.002,0.001
563,0,0.004,0.004,0.001,0.003,0.001,0.002,0.002,0.004,0.002,0.001,0.001,0.001,0.002,0.002,0.001
564,0,0.004,0.004,0.001,0.003,0.001,0.002,0.001,0.004,0.002,0.001,0.001,0.001,0.002,0.002,0.001
565,0,0.004,0.004,0.001,0.003,0.001,0.002,0.001,0.004,0.002,0.001,0.001,0.001,0.002,0.002,0.001
566,0,0.004,0.004,0.001,0.003,0.001,0.002,0.002,0.004,0.002,0.001,0.001,0.001,0.002,0.002,0.001
567,0,0.004,0.004,0.001,0.003,0.001,0.002,0.001,0.004,0.002,0.001,0.001,0.001,0.002,0.002,0.001
568,0,0.004,0.004,0.001,0.003,0.001,0.002,0.001,0.004,0.002,0.001,0.001,0.001,0.002,0.002,0.001
569,0,0.004,0.004,0.001,0.003,0.001,0.002,0.001,0.004,0.002,0.001,0.001,0.001,0.002,0.002,0.001
570,0,0.004,0.004,0.001,0.003,0.001,0.002,0.001,0.004,0.002,0.001,0.001,0.001,0.002,0.002,0.001
571,0,0.004,0.004,0.001,0.003,0.001,0.002,0.001,0.004,0.002,0.001,0.001,0.001,0.002,0.002,0.001
572,0,0.004,0.004,0.001,0.003,0.001,0.002,0.002,0.004,0.002,0.001,0.001,0.001,0.002,0.002,0.001
573,0,0.004,0.004,0.001,0.003,0.001,0.002,0.001,0.004,0.002,0.001,0.001,0.001,0.002,0.002,0.001
574,0,0.004,0.004,0.001,0.003,0.001,0.002,0.001,0.004,0.002,0.001,0.001,0.001,0.001,0.002,0.001
575,0,0.004,0.004,0.001,0.003,0.001,0.002,0.001,0.004,0.002,0.001,0.001,0.001,0.002,0.002,0.001
576,0,0.004,0.004,0.001,0.003,0.001,0.002,0.001,0.004,0.002,0.001,0.001,0.001,0.002,0.002,0.001
577,0,0.004,0.004,0.001,0.003,0.001,0.002,0.001,0.004,0.002,0.001,0.001,0.001,0.002,0.002,0.001
578,0,0.004,0.004,0.001,0.003,0.001,0.002,0.001,0.004,0.002,0.001,0.001,0.001,0.002,0.002,0.001
579,0,0.004,0.004,0.001,0.003,0.001,0.002,0.001,0.004,0.002,0.001,0.001,0.001,0.002,0.002,0.001
580,0,0.004,0.004,0.001,0.003,0.001,0.002,0.001,0.004,0.002,0.001,0.001,0.001,0.002,0.002,0.001
581,0,0.004,0.004,0.001,0.003,0.001,0.002,0.001,0.004,0.002,0.001,0.001,0.001,0.002,0.002,0.001
582,0,0.004,0.004,0.001,0.003,0.001,0.002,0.001,0.004,0.002,0.001,0.001,0.001,0.002,0.002,0.001
583,0,0.004,0.004,0.001,0.003,0.001,0.002,0.001,0.004,0.002,0.001,0.001,0.001,0.002,0.002,0.001
584,0,0.004,0.004,0.001,0.003,0.001,0.002,0.001,0.004,0.002,0.001,0.001,0.001,0.002,0.002,0.001
585,0,0.003,0.004,0.001,0.003,0.001,0.002,0.001,0.004,0.002,0.001,0.001,0.001,0.002,0.002,0.001
586,0,0.004,0.004,0.001,0.003,0.001,0.002,0.001,0.004,0.002,0.001,0.001,0.001,0.002,0.002,0.001
587,0,0.004,0.004,0.001,0.003,0.001,0.002,0.001,0.004,0.002,0.001,0.001,0.001,0.002,0.002,0.001
588,0,0.003,0.004,0.001,0.003,0.001,0.002,0.001,0.004,0.002,0.001,0.001,0.001,0.002,0.002,0.001
589,0,0.003,0.004,0.001,0.003,0.001,0.002,0.001,0.004,0.002,0.001,0.001,0.001,0.002,0.002,0.001
590,0,0.003,0.004,0.001,0.003,0.001,0.002,0.001,0.004,0.002,0.001,0.001,0.001,0.002,0.001,0.001
591,0,0.003,0.004,0.001,0.003,0.001,0.002,0.001,0.004,0.002,0.001,0.001,0.001,0.001,0.002,0.001
592,0,0.003,0.004,0.001,0.003,0.001,0.002,0.001,0.004,0.002,0.001,0.001,0.001,0.001,0.002,0.001
593,0,0.003,0.004,0.001,0.003,0.001,0.002,0.001,0.004,0.002,0.001,0.001,0.001,0.001,0.001,0.001
594,0,0.003,0.004,0.001,0.003,0.001,0.002,0.001,0.004,0.002,0.001,0.001,0.001,0.001,0.001,0.001
595,0,0.003,0.004,0.001,0.003,0.001,0.002,0.001,0.004,0.002,0.001,0.001,0.001,0.001,0.001,0.001
596,0,0.003,0.003,0.001,0.003,0.001,0.002,0.001,0.004,0.002,0.001,0.001,0.001,0.001,0.001,0.001
597,0,0.003,0.003,0.001,0.003,0.001,0.002,0.001,0.004,0.002,0.001,0.001,0.001,0.001,0.001,0.001
598,0,0.003,0.003,0.001,0.003,0.001,0.002,0.001,0.004,0.002,0.001,0.001,0.001,0.001,0.001,0.001
599,0,0.003,0.003,0.001,0.003,0.001,0.002,0.001,0.004,0.002,0.001,0.001,0.001,0.001,0.001,0.001
600,0,0.003,0.003,0.001,0.003,0.001,0.002,0.001,0.004,0.002,0.001,0.001,0.001,0.001,0.001,0.001
601,0,0.003,0.003,0.001,0.003,0.001,0.002,0.001,0.004,0.002,0.001,0.001,0.001,0.001,0.001,0.001
602,0,0.003,0.003,0.001,0.003,0.001,0.002,0.001,0.004,0.002,0.001,0.001,0.001,0.001,0.001,0.001
603,0,0.003,0.003,0.001,0.003,0.001,0.002,0.001,0.004,0.002,0.001,0.001,0.001,0.001,0.001,0.001
604,0,0.003,0.003,0.001,0.003,0.001,0.002,0.001,0.004,0.002,0.001,0.001,0.001,0.001,0.001,0.001
605,0,0.003,0.003,0.001,0.003,0.001,0.002,0.001,0.004,0.002,0.001,0.001,0.001,0.001,0.001,0.001
606,0,0.003,0.003,0.001,0.003,0.001,0.002,0.001,0.004,0.002,0.001,0.001,0.001,0.001,0.001,0.001
607,0,0.003,0.003,0.001,0.002,0.001,0.002,0.001,0.004,0.002,0.001,0.001,0.001,0.001,0.001,0.001
608,0,0.003,0.003,0.001,0.003,0.001,0.002,0.001,0.004,0.002,0.001,0.001,0.001,0.001,0.001,0.001
609,0,0.003,0.003,0.001,0.002,0.001,0.002,0.001,0.004,0.002,0.001,0.001,0.001,0.001,0.001,0.001
610,0,0.003,0.003,0.001,0.002,0.001,0.002,0.001,0.004,0.002,0.001,0.001,0.001,0.001,0.001,0.001
611,0,0.003,0.003,0.001,0.003,0.001,0.002,0.001,0.004,0.002,0.001,0.001,0.001,0.001,0.001,0.001
612,0,0.003,0.003,0.001,0.003,0.001,0.002,0.001,0.004,0.002,0.001,0.001,0.001,0.001,0.001,0.001
613,0,0.003,0.003,0.001,0.003,0.001,0.002,0.001,0.004,0.002,0.001,0.001,0.001,0.001,0.001,0.001
614,0,0.003,0.003,0.001,0.003,0.001,0.002,0.001,0.004,0.002,0.001,0.001,0.001,0.001,0.001,0.001
615,0,0.003,0.003,0.001,0.003,0.001,0.002,0.001,0.004,0.002,0.001,0.001,0.001,0.001,0.001,0.001
616,0,0.003,0.003,0.001,0.003,0.001,0.002,0.001,0.004,0.002,0.001,0.001,0.001,0.001,0.001,0.001
617,0,0.003,0.003,0.001,0.002,0.001,0.002,0.001,0.004,0.002,0.001,0.001,0.001,0.001,0.001,0.001
618,0,0.003,0.003,0.001,0.003,0.001,0.002,0.001,0.004,0.002,0.001,0.001,0.001,0.001,0.001,0.001
619,0,0.003,0.003,0.001,0.002,0.001,0.002,0.001,0.004,0.002,0.001,0.001,0.001,0.001,0.001,0.001
620,0,0.003,0.003,0.001,0.002,0.001,0.002,0.001,0.004,0.002,0.001,0.001,0.001,0.001,0.001,0.001
621,0,0.003,0.003,0.001,0.002,0.001,0.002,0.001,0.004,0.002,0.001,0.001,0.001,0.001,0.001,0.001
622,0,0.003,0.003,0.001,0.002,0.001,0.002,0.001,0.004,0.002,0.001,0.001,0.001,0.001,0.001,0.001
623,0,0.003,0.003,0.001,0.002,0.001,0.002,0.001,0.004,0.002,0.001,0.001,0.001,0.001,0.001,0.001
624,0,0.003,0.003,0.001,0.002,0.001,0.002,0.001,0.004,0.002,0.001,0.001,0.001,0.001,0.001,0.001
625,0,0.003,0.003,0.001,0.002,0.001,0.002,0.001,0.004,0.002,0,0.001,0.001,0.001,0.001,0.001
626,0,0.003,0.003,0.001,0.002,0.001,0.002,0.001,0.004,0.002,0.001,0.001,0.001,0.001,0.001,0.001
627,0,0.003,0.003,0.001,0.002,0.001,0.002,0.001,0.004,0.002,0.001,0.001,0.001,0.001,0.001,0.001
628,0,0.003,0.003,0.001,0.002,0.001,0.002,0.001,0.004,0.001,0.001,0.001,0.001,0.001,0.001,0.001
629,0,0.003,0.003,0.001,0.002,0.001,0.002,0.001,0.004,0.001,0.001,0.001,0.001,0.001,0.001,0.001
630,0,0.003,0.003,0.001,0.002,0.001,0.002,0.001,0.003,0.001,0,0,0.001,0.001,0.001,0.001
631,0,0.003,0.003,0.001,0.002,0.001,0.002,0.001,0.004,0.001,0.001,0.001,0,0.001,0.001,0.001
632,0,0.003,0.003,0.001,0.002,0.001,0.002,0.001,0.004,0.001,0.001,0.001,0.001,0.001,0.001,0.001
633,0,0.003,0.003,0.001,0.002,0.001,0.002,0.001,0.004,0.001,0.001,0.001,0.001,0.001,0.001,0.001
634,0,0.003,0.003,0.001,0.002,0.001,0.002,0.001,0.004,0.001,0.001,0.001,0.001,0.001,0.001,0.001
635,0,0.003,0.003,0.001,0.002,0.001,0.002,0.001,0.003,0.001,0.001,0.001,0.001,0.001,0.001,0.001
636,0,0.003,0.003,0.001,0.002,0.001,0.002,0.001,0.004,0.001,0.001,0.001,0,0.001,0.001,0.001
637,0,0.003,0.003,0.001,0.002,0.001,0.002,0.001,0.003,0.001,0.001,0.001,0,0.001,0.001,0.001
638,0,0.003,0.003,0.001,0.002,0.001,0.002,0.001,0.004,0.001,0.001,0.001,0,0.001,0.001,0.001
639,0,0.003,0.003,0.001,0.002,0.001,0.002,0.001,0.003,0.001,0.001,0.001,0,0.001,0.001,0.001
640,0,0.003,0.003,0.001,0.002,0.001,0.002,0.001,0.003,0.001,0.001,0,0,0.001,0.001,0.001
641,0,0.003,0.003,0.001,0.002,0.001,0.002,0.001,0.003,0.001,0.001,0,0,0.001,0.001,0.001
642,0,0.003,0.003,0.001,0.002,0.001,0.002,0.001,0.003,0.001,0.001,0.001,0,0.001,0.001,0.001
643,0,0.003,0.003,0.001,0.002,0.001,0.002,0.001,0.003,0.001,0.001,0.001,0,0.001,0.001,0.001
644,0,0.003,0.003,0.001,0.002,0.001,0.002,0.001,0.003,0.001,0.001,0.001,0,0.001,0.001,0.001
645,0,0.003,0.003,0.001,0.002,0.001,0.002,0.001,0.003,0.001,0.001,0.001,0,0.001,0.001,0.001
646,0,0.003,0.003,0.001,0.002,0.001,0.002,0.001,0.003,0.001,0.001,0.001,0,0.001,0.001,0.001
647,0,0.003,0.003,0.001,0.002,0.001,0.002,0.001,0.003,0.001,0.001,0.001,0.001,0.001,0.001,0.001
648,0,0.003,0.003,0.001,0.002,0.001,0.002,0.001,0.003,0.002,0.001,0.001,0.001,0.001,0.001,0.001
649,0,0.003,0.003,0.001,0.002,0.001,0.002,0.001,0.003,0.002,0.001,0.001,0.001,0.001,0.001,0.001
650,0,0.003,0.003,0.001,0.002,0.001,0.002,0.001,0.003,0.001,0.001,0.001,0.001,0.001,0.001,0.001
651,0,0.003,0.003,0.001,0.002,0.001,0.002,0.001,0.003,0.001,0.001,0.001,0,0.001,0.001,0.001
652,0,0.003,0.003,0.001,0.002,0.001,0.002,0.001,0.003,0.001,0.001,0.001,0.001,0.001,0.001,0.001
653,0,0.003,0.003,0.001,0.002,0.001,0.002,0.001,0.003,0.001,0.001,0.001,0,0.001,0.001,0.001
654,0,0.003,0.003,0.001,0.002,0.001,0.002,0.001,0.003,0.001,0.001,0.001,0,0.001,0.001,0.001
655,0,0.003,0.003,0.001,0.002,0.001,0.002,0.001,0.003,0.002,0.001,0.001,0.001,0.001,0.001,0.001
656,0,0.003,0.003,0.001,0.002,0.001,0.002,0.001,0.003,0.002,0.001,0.001,0.001,0.001,0.001,0.001
657,0,0.003,0.003,0.001,0.002,0.001,0.002,0.001,0.003,0.001,0.001,0.001,0,0.001,0.001,0.001
658,0,0.003,0.003,0.001,0.002,0.001,0.002,0.001,0.003,0.001,0.001,0.001,0.001,0.001,0.001,0.001
659,0,0.003,0.003,0.001,0.002,0.001,0.002,0.001,0.003,0.001,0.001,0.001,0,0.001,0.001,0.001
660,0,0.003,0.003,0.001,0.002,0.001,0.002,0.001,0.003,0.001,0.001,0.001,0,0.001,0.001,0.001
661,0,0.003,0.003,0.001,0.002,0.001,0.002,0.001,0.003,0.002,0.001,0.001,0.001,0.001,0.001,0.001
662,0,0.003,0.003,0.001,0.002,0.001,0.002,0.001,0.003,0.001,0.001,0.001,0.001,0.001,0.001,0.001
663,0,0.003,0.003,0.001,0.002,0.001,0.002,0.001,0.003,0.001,0.001,0.001,0,0.001,0.001,0.001
664,0,0.003,0.003,0.001,0.002,0.001,0.002,0.001,0.003,0.001,0.001,0.001,0,0.001,0.001,0.001
665,0,0.003,0.003,0.001,0.002,0.001,0.002,0.001,0.003,0.001,0.001,0.001,0.001,0.001,0.001,0.001
666,0,0.003,0.003,0.001,0.002,0.001,0.002,0.001,0.003,0.001,0.001,0.001,0,0.001,0.001,0.001
667,0,0.003,0.003,0.001,0.002,0.001,0.002,0.001,0.003,0.001,0.001,0.001,0.001,0.001,0.001,0.001
668,0,0.003,0.003,0.001,0.002,0.001,0.002,0.001,0.003,0.001,0.001,0.001,0.001,0.001,0.001,0.001
669,0,0.003,0.003,0.001,0.002,0.001,0.002,0.001,0.003,0.002,0.001,0.001,0.001,0.001,0.001,0.001
670,0,0.003,0.003,0.001,0.002,0.001,0.002,0.001,0.003,0.001,0.001,0.001,0,0.001,0.001,0.001
671,0,0.003,0.003,0.001,0.002,0.001,0.002,0.001,0.003,0.001,0.001,0.001,0,0.001,0.001,0.001
672,0,0.003,0.003,0.001,0.002,0.001,0.002,0.001,0.003,0.001,0.001,0.001,0.001,0.001,0.001,0.001
673,0,0.003,0.003,0.001,0.002,0.001,0.002,0.001,0.003,0.001,0.001,0.001,0.001,0.001,0.001,0.001
674,0,0.003,0.003,0.001,0.002,0.001,0.002,0.001,0.003,0.001,0.001,0.001,0,0.001,0.001,0.001
675,0,0.003,0.003,0.001,0.002,0.001,0.002,0.001,0.003,0.001,0.001,0.001,0,0.001,0.001,0.001
676,0,0.003,0.003,0.001,0.002,0.001,0.002,0.001,0.003,0.001,0.001,0.001,0.001,0.001,0.001,0.001
677,0,0.003,0.003,0.001,0.002,0.001,0.002,0.001,0.003,0.001,0.001,0.001,0,0.001,0.001,0.001
678,0,0.003,0.003,0.001,0.002,0.001,0.002,0.001,0.003,0.001,0.001,0.001,0,0.001,0.001,0.001
679,0,0.003,0.003,0.001,0.002,0.001,0.002,0.001,0.003,0.001,0.001,0.001,0,0.001,0.001,0.001
680,0,0.003,0.003,0.001,0.002,0.001,0.002,0.001,0.003,0.001,0.001,0.001,0.001,0.001,0.001,0.001
681,0,0.003,0.003,0.001,0.002,0.001,0.002,0.001,0.003,0.001,0.001,0.001,0,0.001,0.001,0.001
682,0,0.003,0.003,0.001,0.002,0.001,0.002,0.001,0.003,0.001,0.001,0.001,0,0.001,0.001,0.001
683,0,0.003,0.003,0.001,0.002,0.001,0.002,0.001,0.003,0.001,0.001,0.001,0,0.001,0.001,0.001
684,0,0.003,0.003,0.001,0.002,0.001,0.002,0.001,0.003,0.001,0.001,0.001,0.001,0.001,0.001,0.001
685,0,0.003,0.003,0.001,0.002,0.001,0.002,0.001,0.003,0.001,0.001,0.001,0.001,0.001,0.001,0.001
686,0,0.003,0.003,0.001,0.002,0.001,0.002,0.001,0.003,0.001,0.001,0.001,0.001,0.001,0.001,0.001
687,0,0.003,0.003,0.001,0.002,0.001,0.002,0.001,0.003,0.001,0.001,0.001,0.001,0.001,0.001,0.001
688,0,0.003,0.003,0.001,0.002,0.001,0.002,0.001,0.003,0.001,0.001,0.001,0,0.001,0.001,0.001
689,0,0.003,0.003,0.001,0.002,0.001,0.002,0.001,0.003,0.001,0.001,0.001,0,0.001,0.001,0.001
690,0,0.003,0.003,0.001,0.002,0.001,0.002,0.001,0.003,0.001,0.001,0.001,0,0.001,0.001,0.001
691,0,0.003,0.003,0.001,0.002,0.001,0.002,0.001,0.003,0.001,0.001,0.001,0,0.001,0.001,0.001
692,0,0.003,0.003,0.001,0.002,0.001,0.002,0.001,0.003,0.001,0.001,0.001,0.001,0.001,0.001,0.001
693,0,0.003,0.003,0.001,0.002,0.001,0.002,0.001,0.003,0.001,0.001,0.001,0,0.001,0.001,0.001
694,0,0.003,0.003,0.001,0.002,0.001,0.002,0.001,0.003,0.001,0.001,0.001,0,0.001,0.001,0.001
695,0,0.003,0.003,0.001,0.002,0.001,0.002,0.001,0.003,0.001,0.001,0.001,0,0.001,0.001,0.001
696,0,0.003,0.003,0.001,0.002,0.001,0.002,0.001,0.003,0.001,0.001,0.001,0.001,0.001,0.001,0.001
697,0,0.003,0.003,0.001,0.002,0.001,0.002,0.001,0.003,0.001,0.001,0.001,0.001,0.001,0.001,0.001
698,0,0.003,0.003,0.001,0.002,0.001,0.002,0.001,0.003,0.001,0.001,0.001,0,0.001,0.001,0.001
699,0,0.003,0.003,0.001,0.002,0.001,0.002,0.001,0.003,0.001,0.001,0.001,0,0.001,0.001,0.001
700,0,0.003,0.003,0.001,0.002,0.001,0.002,0.001,0.003,0.001,0.001,0.001,0,0.001,0.001,0.001
701,0,0.003,0.003,0.001,0.002,0.001,0.002,0.001,0.003,0.001,0.001,0.001,0,0.001,0.001,0.001
702,0,0.003,0.003,0.001,0.002,0.001,0.002,0.001,0.003,0.001,0.001,0.001,0,0.001,0.001,0.001
703,0,0.003,0.003,0.001,0.002,0.001,0.002,0.001,0.003,0.001,0.001,0.001,0,0.001,0.001,0.001
704,0,0.003,0.003,0.001,0.002,0.001,0.002,0.001,0.003,0.001,0.001,0.001,0,0.001,0.001,0.001
705,0,0.003,0.003,0.001,0.002,0.001,0.002,0.001,0.003,0.001,0.001,0.001,0,0.001,0.001,0.001
706,0,0.003,0.003,0.001,0.002,0.001,0.002,0.001,0.003,0.001,0.001,0.001,0.001,0.001,0.001,0.001
707,0,0.003,0.003,0.001,0.002,0.001,0.001,0.001,0.003,0.001,0.001,0.001,0,0.001,0.001,0.001
708,0,0.003,0.003,0.001,0.002,0.001,0.001,0.001,0.003,0.001,0.001,0.001,0,0.001,0.001,0.001
709,0,0.003,0.003,0.001,0.002,0.001,0.001,0.001,0.003,0.001,0.001,0.001,0,0.001,0.001,0.001
710,0,0.002,0.003,0.001,0.002,0.001,0.001,0.001,0.003,0.001,0.001,0,0,0.001,0.001,0.001
711,0,0.002,0.003,0.001,0.002,0.001,0.001,0.001,0.003,0.001,0.001,0,0,0.001,0.001,0.001
712,0,0.003,0.003,0.001,0.002,0.001,0.002,0.001,0.003,0.001,0.001,0.001,0,0.001,0.001,0.001
713,0,0.003,0.003,0.001,0.002,0.001,0.002,0.001,0.003,0.001,0.001,0.001,0,0.001,0.001,0.001
714,0,0.003,0.003,0.001,0.002,0.001,0.002,0.001,0.003,0.001,0.001,0.001,0,0.001,0.001,0.001
715,0,0.002,0.003,0.001,0.002,0.001,0.001,0.001,0.003,0.001,0.001,0,0,0.001,0.001,0.001
716,0,0.002,0.003,0.001,0.002,0.001,0.001,0.001,0.003,0.001,0.001,0,0,0.001,0.001,0.001
717,0,0.002,0.003,0.001,0.002,0.001,0.001,0.001,0.003,0.001,0.001,0,0,0.001,0.001,0.001
718,0,0.002,0.003,0.001,0.002,0.001,0.001,0.001,0.003,0.001,0.001,0.001,0,0.001,0.001,0.001
719,0,0.002,0.003,0.001,0.002,0.001,0.001,0.001,0.003,0.001,0,0,0,0.001,0.001,0.001
720,0,0.002,0.003,0.001,0.002,0.001,0.001,0.001,0.003,0.001,0,0,0,0.001,0.001,0.001
721,0,0.002,0.003,0.001,0.002,0.001,0.001,0.001,0.003,0.001,0.001,0,0,0.001,0.001,0.001
722,0,0.002,0.003,0.001,0.002,0.001,0.001,0.001,0.003,0.001,0,0,0,0.001,0.001,0.001
723,0,0.002,0.003,0.001,0.002,0.001,0.001,0.001,0.003,0.001,0,0,0,0.001,0.001,0.001
724,0,0.002,0.003,0.001,0.002,0,0.001,0.001,0.003,0.001,0,0,0,0.001,0.001,0.001
725,0,0.002,0.003,0.001,0.002,0,0.001,0.001,0.003,0.001,0,0,0,0.001,0.001,0.001
726,0,0.002,0.003,0.001,0.002,0,0.001,0.001,0.003,0.001,0,0,0,0.001,0.001,0.001
727,0,0.002,0.003,0.001,0.002,0,0.001,0.001,0.003,0.001,0.001,0,0,0.001,0.001,0.001
728,0,0.002,0.003,0.001,0.002,0,0.001,0.001,0.003,0.001,0,0,0,0.001,0.001,0.001
729,0,0.002,0.003,0.001,0.002,0,0.001,0.001,0.003,0.001,0,0,0,0.001,0.001,0.001
730,0,0.002,0.003,0.001,0.002,0,0.001,0.001,0.003,0.001,0,0,0,0.001,0.001,0.001
731,0,0.002,0.003,0.001,0.002,0,0.001,0.001,0.003,0.001,0,0,0,0.001,0.001,0.001
732,0,0.002,0.002,0,0.002,0,0.001,0.001,0.003,0.001,0,0,0,0.001,0.001,0.001
733,0,0.002,0.002,0,0.002,0,0.001,0.001,0.003,0.001,0,0,0,0.001,0.001,0.001
734,0,0.002,0.002,0,0.002,0,0.001,0.001,0.003,0.001,0,0,0,0.001,0.001,0.001
735,0,0.002,0.003,0.001,0.002,0,0.001,0.001,0.003,0.001,0,0,0,0.001,0.001,0.001
736,0,0.002,0.002,0.001,0.002,0,0.001,0.001,0.003,0.001,0,0,0,0.001,0.001,0.001
737,0,0.002,0.002,0.001,0.002,0,0.001,0.001,0.003,0.001,0,0,0,0.001,0.001,0.001
738,0,0.002,0.002,0.001,0.002,0,0.001,0.001,0.003,0.001,0,0,0,0.001,0.001,0.001
739,0,0.002,0.003,0.001,0.002,0,0.001,0.001,0.003,0.001,0,0,0,0.001,0.001,0.001
740,0,0.002,0.003,0.001,0.002,0,0.001,0.001,0.003,0.001,0,0,0,0.001,0.001,0.001
741,0,0.002,0.002,0.001,0.002,0,0.001,0.001,0.003,0.001,0,0,0,0.001,0.001,0.001
742,0,0.002,0.003,0.001,0.002,0,0.001,0.001,0.003,0.001,0,0,0,0.001,0.001,0.001
743,0,0.002,0.002,0,0.002,0,0.001,0.001,0.003,0.001,0,0,0,0.001,0.001,0.001
744,0,0.002,0.002,0,0.002,0,0.001,0,0.003,0.001,0,0,0,0,0.001,0.001
745,0,0.002,0.002,0,0.002,0,0.001,0.001,0.003,0.001,0,0,0,0.001,0.001,0.001
746,0,0.002,0.002,0.001,0.002,0,0.001,0.001,0.003,0.001,0,0,0,0.001,0.001,0.001
747,0,0.002,0.002,0,0.002,0,0.001,0.001,0.003,0.001,0,0,0,0.001,0.001,0.001
748,0,0.002,0.003,0.001,0.002,0,0.001,0.001,0.003,0.001,0,0,0,0.001,0.001,0.001
749,0,0.002,0.003,0.001,0.002,0.001,0.001,0.001,0.003,0.001,0,0,0,0.001,0.001,0.001
750,0,0.002,0.003,0.001,0.002,0.001,0.001,0.001,0.003,0.001,0,0,0,0.001,0.001,0.001
751,0,0.002,0.003,0.001,0.002,0.001,0.001,0.001,0.003,0.001,0.001,0,0,0.001,0.001,0.001
752,0,0.002,0.003,0.001,0.002,0,0.001,0.001,0.003,0.001,0.001,0,0,0.001,0.001,0.001
753,0,0.002,0.003,0.001,0.002,0,0.001,0.001,0.003,0.001,0.001,0,0,0.001,0.001,0.001
754,0,0.002,0.003,0.001,0.002,0,0.001,0.001,0.003,0.001,0,0,0,0.001,0.001,0.001
755,0,0.002,0.003,0,0.002,0,0.001,0.001,0.003,0.001,0,0,0,0.001,0.001,0.001
756,0,0.002,0.003,0,0.002,0,0.001,0.001,0.003,0.001,0,0,0,0.001,0.001,0.001
757,0,0.002,0.003,0,0.002,0,0.001,0.001,0.003,0.001,0.001,0,0,0.001,0.001,0.001
758,0,0.002,0.003,0,0.002,0,0.001,0.001,0.003,0.001,0.001,0,0,0.001,0.001,0.001
759,0,0.003,0.003,0.001,0.002,0.001,0.001,0.001,0.003,0.001,0.001,0.001,0.001,0.001,0.001,0.001
760,0.001,0.003,0.004,0.002,0.003,0.002,0.002,0.002,0.004,0.002,0.002,0.001,0.001,0.002,0.002,0.002
761,0,0.002,0.003,0.001,0.002,0.001,0.001,0.001,0.003,0.001,0.001,0.001,0.001,0.001,0.001,0.001
762,0,0.002,0.003,0,0.002,0,0.001,0.001,0.003,0.001,0.001,0,0,0.001,0.001,0.001
763,0,0.002,0.002,0,0.002,0.001,0.001,0.001,0.003,0.001,0.001,0,0,0.001,0.001,0.001
764,0,0.002,0.003,0,0.002,0.001,0.001,0.001,0.003,0.001,0.001,0.001,0,0.001,0.001,0.001
765,0,0.002,0.003,0,0.002,0.001,0.001,0.001,0.003,0.001,0.001,0.001,0,0.001,0.001,0.001
766,0,0.002,0.002,0.001,0.002,0.001,0.001,0.001,0.003,0.001,0.001,0.001,0,0.001,0.001,0.001
767,0,0.002,0.002,0,0.002,0.001,0.001,0.001,0.003,0.001,0.001,0,0,0.001,0.001,0.001
768,0,0.002,0.003,0,0.002,0.001,0.001,0.001,0.003,0.001,0.001,0.001,0,0.001,0.001,0.001
769,0,0.002,0.003,0,0.002,0.001,0.001,0.001,0.003,0.001,0.001,0.001,0,0.001,0.001,0.001
770,0,0.002,0.003,0.001,0.002,0.001,0.001,0.001,0.003,0.001,0.001,0.001,0,0.001,0.001,0.001
771,0,0.002,0.003,0.001,0.002,0,0.001,0.001,0.003,0.001,0.001,0.001,0,0.001,0.001,0.001
772,0,0.002,0.002,0.001,0.002,0,0.001,0.001,0.003,0.001,0.001,0.001,0,0.001,0.001,0.001
773,0,0.002,0.003,0.001,0.002,0.001,0.001,0.001,0.003,0.001,0.001,0.001,0,0.001,0.001,0.001
774,0,0.002,0.003,0.001,0.002,0.001,0.001,0.001,0.003,0.001,0.001,0.001,0,0.001,0.001,0.001
775,0,0.002,0.003,0.001,0.002,0.001,0.001,0.001,0.003,0.001,0.001,0.001,0,0.001,0.001,0.001
776,0,0.002,0.003,0.001,0.002,0.001,0.001,0.001,0.003,0.001,0.001,0.001,0,0.001,0.001,0.001
777,0,0.002,0.003,0.001,0.002,0.001,0.001,0.001,0.003,0.001,0.001,0.001,0.001,0.001,0.001,0.001
778,0,0.002,0.003,0.001,0.002,0.001,0.001,0.001,0.003,0.001,0.001,0.001,0,0.001,0.001,0.001
779,0,0.002,0.003,0,0.002,0.001,0.001,0.001,0.003,0.001,0.001,0.001,0,0.001,0.001,0.001
780,0,0.002,0.003,0.001,0.002,0.001,0.001,0.001,0.003,0.001,0.001,0.001,0,0.001,0.001,0.001
781,0,0.002,0.003,0.001,0.002,0.001,0.001,0.001,0.003,0.001,0.001,0.001,0,0.001,0.001,0.001
782,0,0.002,0.003,0.001,0.002,0.001,0.001,0.001,0.003,0.001,0.001,0.001,0,0.001,0.001,0.001
783,0,0.002,0.003,0,0.002,0.001,0.001,0.001,0.003,0.001,0.001,0.001,0,0.001,0.001,0.001
784,0,0.002,0.002,0,0.002,0.001,0.001,0.001,0.003,0.001,0.001,0.001,0,0.001,0.001,0.001
785,0,0.002,0.003,0,0.002,0.001,0.001,0.001,0.003,0.001,0.001,0.001,0,0.001,0.001,0.001
786,0,0.002,0.002,0.001,0.002,0.001,0.001,0.001,0.003,0.001,0.001,0.001,0,0.001,0.001,0.001
787,0,0.002,0.002,0.001,0.002,0.001,0.001,0.001,0.003,0.001,0.001,0.001,0,0.001,0.001,0.001
788,0,0.002,0.003,0,0.002,0.001,0.001,0.001,0.003,0.001,0.001,0.001,0,0.001,0.001,0.001
789,0,0.002,0.003,0.001,0.002,0.001,0.001,0.001,0.003,0.001,0.001,0.001,0.001,0.001,0.001,0.001
790,0,0.002,0.003,0.001,0.002,0.001,0.001,0.001,0.003,0.001,0.001,0.001,0.001,0.001,0.001,0.001
791,0,0.002,0.003,0.001,0.002,0.001,0.002,0.001,0.003,0.001,0.001,0.001,0,0.001,0.001,0.001
792,0,0.002,0.003,0.001,0.002,0.001,0.002,0.001,0.003,0.001,0.001,0.001,0.001,0.001,0.001,0.001
793,0,0.002,0.003,0.001,0.002,0.001,0.002,0.001,0.003,0.001,0.001,0.001,0.001,0.001,0.001,0.001
794,0,0.002,0.003,0.001,0.002,0.001,0.001,0.001,0.003,0.001,0.001,0.001,0.001,0.001,0.001,0.001
795,0,0.002,0.003,0.001,0.002,0.001,0.001,0.001,0.003,0.001,0.001,0.001,0,0.001,0.001,0.001
796,0,0.002,0.003,0.001,0.002,0.001,0.001,0.001,0.003,0.001,0.001,0.001,0.001,0.001,0.001,0.001
797,0,0.002,0.003,0.001,0.002,0.001,0.001,0.001,0.003,0.001,0.001,0.001,0.001,0.001,0.001,0.001
798,0,0.002,0.003,0.001,0.002,0.001,0.001,0.001,0.003,0.001,0.001,0.001,0.001,0.001,0.001,0.001
799,0,0.002,0.003,0.001,0.002,0.001,0.001,0.001,0.003,0.001,0.001,0.001,0.001,0.001,0.001,0.001
800,0,0.002,0.003,0.001,0.002,0.001,0.001,0.001,0.003,0.001,0.001,0.001,0.001,0.001,0.001,0.001
801,0,0.002,0.003,0.001,0.002,0.001,0.001,0.001,0.003,0.001,0.001,0.001,0.001,0.001,0.001,0.001
802,0,0.002,0.003,0.001,0.002,0.001,0.001,0.001,0.003,0.001,0.001,0.001,0.001,0.001,0.001,0.001
803,0,0.002,0.003,0.001,0.002,0.001,0.001,0.001,0.003,0.001,0.001,0.001,0.001,0.001,0.001,0.001
804,0,0.002,0.003,0.001,0.002,0.001,0.001,0.001,0.003,0.001,0.001,0.001,0.001,0.001,0.001,0.001
805,0,0.002,0.003,0.001,0.002,0.001,0.001,0.001,0.003,0.001,0.001,0.001,0.001,0.001,0.001,0.001
806,0,0.002,0.003,0.001,0.002,0.001,0.001,0.001,0.003,0.001,0.001,0.001,0.001,0.001,0.001,0.001
807,0,0.002,0.003,0.001,0.002,0.001,0.001,0.001,0.003,0.001,0.001,0.001,0.001,0.001,0.001,0.001
808,0,0.002,0.003,0.001,0.002,0.001,0.001,0.001,0.003,0.001,0.001,0.001,0.001,0.001,0.001,0.001
809,0,0.002,0.003,0,0.002,0.001,0.001,0.001,0.003,0.001,0.001,0.001,0,0.001,0.001,0.001
810,0,0.002,0.003,0.001,0.002,0.001,0.001,0.001,0.003,0.001,0.001,0.001,0,0.001,0.001,0.001
811,0,0.002,0.003,0.001,0.002,0.001,0.001,0.001,0.003,0.001,0.001,0.001,0.001,0.001,0.001,0.001
812,0,0.002,0.003,0.001,0.002,0.001,0.001,0.001,0.003,0.001,0.001,0.001,0.001,0.001,0.001,0.001
813,0,0.002,0.003,0.001,0.002,0.001,0.001,0.001,0.003,0.001,0.001,0.001,0,0.001,0.001,0.001
814,0,0.002,0.003,0.001,0.002,0.001,0.001,0.001,0.003,0.001,0.001,0.001,0,0.001,0.001,0.001
815,0,0.002,0.003,0.001,0.002,0.001,0.001,0.001,0.003,0.001,0.001,0.001,0.001,0.001,0.001,0.001
816,0,0.002,0.003,0.001,0.002,0.001,0.001,0.001,0.003,0.001,0.001,0.001,0.001,0.001,0.001,0.001
817,0,0.002,0.003,0.001,0.002,0.001,0.001,0.001,0.003,0.001,0.001,0.001,0,0.001,0.001,0.001
818,0,0.002,0.003,0.001,0.002,0.001,0.001,0.001,0.003,0.001,0.001,0.001,0,0.001,0.001,0.001
819,0,0.002,0.003,0.001,0.002,0.001,0.001,0.001,0.003,0.001,0.001,0.001,0,0.001,0.001,0.001
820,0,0.002,0.002,0.001,0.002,0.001,0.001,0.001,0.003,0.001,0.001,0.001,0,0.001,0.001,0.001
821,0,0.002,0.002,0.001,0.002,0.001,0.001,0.001,0.003,0.001,0.001,0.001,0,0.001,0.001,0.001
822,0,0.002,0.002,0.001,0.002,0.001,0.001,0.001,0.003,0.001,0.001,0.001,0,0.001,0.001,0.001
823,0,0.002,0.002,0.001,0.002,0.001,0.001,0.001,0.003,0.001,0.001,0.001,0.001,0.001,0.001,0.001
824,0,0.002,0.002,0.001,0.002,0.001,0.001,0.001,0.003,0.001,0.001,0.001,0,0.001,0.001,0.001
825,0,0.002,0.002,0.001,0.002,0.001,0.001,0.001,0.003,0.001,0.001,0.001,0,0.001,0.001,0.001
826,0,0.002,0.002,0.001,0.002,0,0.001,0.001,0.003,0.001,0.001,0.001,0,0.001,0.001,0.001
827,0,0.002,0.002,0.001,0.002,0,0.001,0.001,0.003,0.001,0.001,0.001,0,0.001,0.001,0.001
828,0,0.002,0.002,0.001,0.002,0.001,0.001,0.001,0.003,0.001,0.001,0.001,0,0.001,0.001,0.001
829,0,0.002,0.002,0,0.002,0,0.001,0.001,0.003,0.001,0.001,0,0,0.001,0.001,0.001
830,0,0.002,0.002,0,0.002,0,0.001,0.001,0.003,0.001,0.001,0,0,0.001,0.001,0.001
831,0,0.002,0.002,0.001,0.002,0,0.001,0.001,0.003,0.001,0.001,0,0,0.001,0.001,0.001
832,0,0.002,0.002,0.001,0.002,0,0.001,0.001,0.003,0.001,0.001,0,0,0.001,0.001,0.001
833,0,0.002,0.002,0.001,0.002,0,0.001,0.001,0.003,0.001,0,0,0,0.001,0.001,0.001
834,0,0.002,0.002,0.001,0.002,0,0.001,0.001,0.003,0.001,0,0,0,0,0.001,0.001
835,0,0.002,0.002,0,0.002,0,0.001,0.001,0.003,0.001,0,0,0,0,0.001,0.001
836,0,0.002,0.002,0.001,0.002,0,0.001,0.001,0.003,0.001,0.001,0.001,0,0.001,0.001,0.001
837,0,0.002,0.002,0.001,0.002,0,0.001,0.001,0.003,0.001,0,0.001,0,0.001,0.001,0.001
838,0,0.002,0.002,0,0.002,0,0.001,0.001,0.003,0.001,0,0,0,0.001,0.001,0.001
839,0,0.002,0.002,0.001,0.002,0,0.001,0.001,0.003,0.001,0,0.001,0,0.001,0.001,0.001
840,0,0.002,0.002,0,0.002,0,0.001,0.001,0.003,0.001,0,0,0,0.001,0.001,0.001
841,0,0.002,0.002,0,0.002,0,0.001,0.001,0.003,0.001,0,0,0,0.001,0.001,0.001
842,0,0.002,0.002,0.001,0.002,0,0.001,0.001,0.003,0.001,0.001,0.001,0,0.001,0.001,0.001
843,0,0.002,0.002,0,0.002,0,0.001,0.001,0.003,0.001,0.001,0,0,0.001,0.001,0.001
844,0,0.002,0.002,0.001,0.002,0,0.001,0.001,0.003,0.001,0.001,0,0,0.001,0.001,0.001
845,0,0.002,0.002,0,0.002,0,0.001,0.001,0.003,0.001,0,0,0,0,0.001,0.001
846,0,0.002,0.002,0.001,0.002,0,0.001,0.001,0.003,0.001,0,0,0,0.001,0.001,0.001
847,0,0.002,0.002,0,0.002,0,0.001,0.001,0.003,0.001,0,0,0,0.001,0.001,0.001
848,0,0.002,0.002,0.001,0.002,0,0.001,0.001,0.003,0.001,0,0,0,0.001,0.001,0.001
849,0,0.002,0.002,0.001,0.002,0,0.001,0.001,0.003,0.001,0,0.001,0,0.001,0.001,0.001
850,0,0.002,0.002,0.001,0.002,0,0.001,0.001,0.003,0.001,0,0,0,0.001,0.001,0.001
