Wavelength nm.	RawData ...	RawData ...	RawData ...	RawData ...	RawData ...	RawData ...	RawData ...	RawData ...	RawData ...	RawData ...	RawData ...	RawData ...	RawData ...	RawData ...	RawData ...	RawData ...
190.00	-0.003	0.502	0.463	0.176	0.457	0.424	0.393	0.452	0.179	0.455	0.449	0.441	0.417	0.450	0.186	0.191
191.00	-0.004	0.464	0.417	0.165	0.415	0.389	0.362	0.413	0.163	0.418	0.413	0.402	0.381	0.408	0.171	0.178
192.00	-0.005	0.425	0.376	0.157	0.381	0.356	0.333	0.378	0.152	0.385	0.378	0.366	0.350	0.371	0.159	0.166
193.00	-0.007	0.382	0.333	0.148	0.341	0.322	0.302	0.339	0.139	0.352	0.340	0.328	0.314	0.330	0.147	0.154
194.00	-0.008	0.352	0.300	0.140	0.311	0.294	0.278	0.309	0.128	0.325	0.310	0.298	0.285	0.298	0.137	0.144
195.00	-0.008	0.323	0.272	0.133	0.283	0.268	0.256	0.280	0.119	0.300	0.282	0.271	0.260	0.271	0.129	0.136
196.00	-0.008	0.298	0.250	0.128	0.260	0.246	0.238	0.255	0.112	0.279	0.260	0.249	0.238	0.247	0.121	0.129
197.00	-0.008	0.276	0.230	0.123	0.240	0.227	0.223	0.234	0.105	0.260	0.239	0.228	0.218	0.227	0.115	0.122
198.00	-0.008	0.256	0.213	0.118	0.222	0.210	0.208	0.217	0.099	0.244	0.222	0.211	0.201	0.210	0.108	0.116
199.00	-0.008	0.241	0.199	0.115	0.207	0.197	0.197	0.202	0.095	0.231	0.208	0.195	0.188	0.195	0.104	0.112
200.00	-0.007	0.228	0.187	0.112	0.195	0.185	0.187	0.189	0.091	0.220	0.196	0.183	0.177	0.183	0.100	0.108
201.00	-0.007	0.215	0.176	0.109	0.183	0.174	0.177	0.178	0.088	0.210	0.185	0.171	0.166	0.172	0.097	0.103
202.00	-0.007	0.204	0.166	0.106	0.172	0.165	0.169	0.167	0.084	0.200	0.175	0.161	0.157	0.162	0.093	0.100
203.00	-0.007	0.196	0.158	0.104	0.164	0.157	0.162	0.159	0.082	0.193	0.167	0.153	0.149	0.154	0.091	0.097
204.00	-0.006	0.187	0.152	0.102	0.156	0.150	0.156	0.151	0.080	0.186	0.160	0.146	0.143	0.147	0.089	0.094
205.00	-0.006	0.180	0.145	0.099	0.150	0.143	0.150	0.144	0.078	0.180	0.154	0.140	0.136	0.141	0.086	0.091
206.00	-0.006	0.174	0.140	0.097	0.144	0.138	0.146	0.139	0.076	0.174	0.148	0.135	0.131	0.136	0.084	0.089
207.00	-0.006	0.169	0.135	0.095	0.139	0.133	0.142	0.134	0.075	0.169	0.143	0.130	0.127	0.131	0.083	0.088
208.00	-0.005	0.164	0.131	0.092	0.135	0.129	0.138	0.130	0.073	0.164	0.139	0.126	0.123	0.127	0.081	0.086
209.00	-0.005	0.160	0.127	0.090	0.131	0.125	0.134	0.126	0.072	0.159	0.135	0.123	0.119	0.123	0.080	0.084
210.00	-0.005	0.156	0.124	0.088	0.127	0.122	0.131	0.123	0.070	0.154	0.131	0.119	0.116	0.120	0.078	0.083
211.00	-0.005	0.152	0.120	0.086	0.123	0.118	0.127	0.119	0.069	0.149	0.127	0.116	0.113	0.117	0.077	0.081
212.00	-0.004	0.149	0.117	0.083	0.120	0.115	0.124	0.116	0.068	0.144	0.123	0.113	0.110	0.114	0.076	0.080
213.00	-0.004	0.146	0.114	0.080	0.117	0.112	0.121	0.113	0.066	0.140	0.119	0.110	0.107	0.111	0.074	0.079
214.00	-0.004	0.142	0.111	0.078	0.114	0.109	0.119	0.110	0.066	0.135	0.116	0.108	0.104	0.108	0.073	0.078
215.00	-0.003	0.140	0.109	0.075	0.111	0.107	0.116	0.108	0.064	0.130	0.113	0.105	0.102	0.106	0.072	0.077
216.00	-0.003	0.137	0.107	0.073	0.109	0.104	0.113	0.105	0.063	0.126	0.109	0.103	0.099	0.103	0.071	0.075
217.00	-0.003	0.134	0.104	0.070	0.106	0.102	0.111	0.103	0.062	0.121	0.106	0.101	0.097	0.101	0.070	0.074
218.00	-0.003	0.132	0.102	0.068	0.104	0.100	0.109	0.101	0.061	0.117	0.104	0.099	0.095	0.099	0.069	0.073
219.00	-0.003	0.129	0.100	0.065	0.102	0.098	0.107	0.099	0.060	0.113	0.101	0.097	0.093	0.097	0.068	0.072
220.00	-0.002	0.127	0.098	0.063	0.100	0.096	0.105	0.097	0.059	0.109	0.098	0.095	0.091	0.095	0.067	0.071
221.00	-0.002	0.125	0.096	0.061	0.098	0.094	0.103	0.095	0.058	0.105	0.096	0.093	0.089	0.093	0.066	0.070
222.00	-0.002	0.123	0.094	0.059	0.096	0.092	0.101	0.094	0.057	0.102	0.093	0.092	0.087	0.091	0.065	0.069
223.00	-0.002	0.121	0.093	0.057	0.095	0.091	0.099	0.092	0.056	0.099	0.091	0.090	0.086	0.090	0.065	0.068
224.00	-0.002	0.119	0.091	0.055	0.093	0.089	0.097	0.090	0.055	0.096	0.089	0.088	0.084	0.088	0.064	0.068
225.00	-0.001	0.117	0.090	0.054	0.091	0.088	0.096	0.089	0.054	0.093	0.087	0.087	0.082	0.086	0.063	0.067
226.00	-0.001	0.115	0.088	0.052	0.090	0.086	0.094	0.087	0.053	0.090	0.085	0.086	0.081	0.085	0.062	0.066
227.00	-0.001	0.114	0.086	0.051	0.088	0.085	0.093	0.086	0.053	0.088	0.083	0.084	0.079	0.084	0.062	0.065
228.00	-0.001	0.112	0.085	0.050	0.087	0.083	0.091	0.084	0.052	0.085	0.082	0.083	0.078	0.082	0.061	0.064
229.00	-0.001	0.110	0.084	0.048	0.085	0.082	0.090	0.083	0.051	0.083	0.080	0.081	0.077	0.081	0.060	0.063
230.00	-0.001	0.108	0.082	0.047	0.084	0.080	0.088	0.081	0.050	0.081	0.078	0.080	0.075	0.079	0.059	0.062
231.00	-0.001	0.107	0.081	0.046	0.082	0.079	0.087	0.080	0.049	0.079	0.077	0.078	0.074	0.078	0.058	0.061
232.00	-0.001	0.105	0.079	0.045	0.081	0.078	0.085	0.078	0.049	0.077	0.075	0.077	0.072	0.077	0.057	0.060
233.00	-0.000	0.104	0.078	0.044	0.080	0.077	0.084	0.077	0.048	0.076	0.074	0.076	0.071	0.076	0.057	0.060
234.00	-0.000	0.102	0.077	0.043	0.078	0.075	0.083	0.076	0.047	0.074	0.073	0.075	0.070	0.074	0.056	0.059
235.00	-0.000	0.100	0.076	0.043	0.077	0.074	0.082	0.075	0.047	0.073	0.071	0.074	0.069	0.073	0.055	0.058
236.00	0.000	0.099	0.075	0.042	0.076	0.073	0.080	0.074	0.046	0.072	0.070	0.073	0.068	0.072	0.054	0.057
237.00	0.000	0.097	0.073	0.041	0.074	0.072	0.079	0.072	0.045	0.070	0.069	0.071	0.067	0.071	0.053	0.056
238.00	0.000	0.096	0.073	0.041	0.073	0.071	0.078	0.071	0.045	0.069	0.068	0.071	0.066	0.070	0.053	0.055
239.00	0.000	0.095	0.072	0.040	0.073	0.070	0.077	0.070	0.044	0.068	0.067	0.070	0.065	0.069	0.052	0.054
240.00	0.000	0.093	0.071	0.040	0.072	0.069	0.076	0.069	0.044	0.067	0.066	0.069	0.064	0.068	0.051	0.054
241.00	0.000	0.092	0.070	0.039	0.070	0.068	0.075	0.068	0.043	0.066	0.065	0.068	0.063	0.067	0.051	0.053
242.00	0.000	0.091	0.069	0.038	0.070	0.067	0.074	0.067	0.043	0.065	0.064	0.067	0.062	0.066	0.050	0.052
243.00	0.000	0.090	0.068	0.038	0.069	0.066	0.073	0.067	0.042	0.065	0.064	0.066	0.062	0.066	0.049	0.051
244.00	0.000	0.089	0.067	0.038	0.068	0.066	0.072	0.066	0.042	0.064	0.063	0.065	0.061	0.065	0.049	0.051
245.00	0.000	0.088	0.067	0.037	0.067	0.065	0.071	0.065	0.041	0.063	0.062	0.065	0.060	0.064	0.048	0.050
246.00	0.000	0.087	0.066	0.037	0.066	0.064	0.071	0.065	0.041	0.063	0.062	0.064	0.060	0.064	0.048	0.050
247.00	0.000	0.086	0.065	0.037	0.066	0.063	0.070	0.064	0.040	0.062	0.061	0.063	0.059	0.063	0.047	0.049
248.00	0.000	0.085	0.065	0.036	0.065	0.063	0.069	0.063	0.040	0.061	0.060	0.063	0.059	0.062	0.047	0.048
249.00	0.001	0.085	0.064	0.036	0.064	0.062	0.069	0.063	0.040	0.061	0.060	0.062	0.058	0.062	0.046	0.048
250.00	0.000	0.084	0.063	0.036	0.064	0.062	0.068	0.062	0.039	0.060	0.059	0.062	0.058	0.061	0.046	0.047
251.00	0.001	0.083	0.063	0.035	0.063	0.061	0.067	0.062	0.039	0.060	0.059	0.061	0.057	0.061	0.045	0.047
252.00	0.001	0.082	0.063	0.035	0.063	0.061	0.067	0.061	0.039	0.059	0.058	0.061	0.057	0.060	0.045	0.046
253.00	0.000	0.082	0.062	0.035	0.062	0.060	0.066	0.060	0.038	0.059	0.058	0.060	0.056	0.060	0.044	0.046
254.00	0.000	0.081	0.061	0.034	0.061	0.059	0.065	0.060	0.038	0.058	0.057	0.060	0.056	0.059	0.044	0.046
255.00	0.000	0.080	0.061	0.034	0.061	0.059	0.065	0.059	0.037	0.058	0.056	0.059	0.055	0.059	0.043	0.045
256.00	0.000	0.080	0.060	0.034	0.061	0.058	0.064	0.059	0.037	0.057	0.056	0.059	0.055	0.058	0.043	0.045
257.00	0.000	0.079	0.060	0.034	0.060	0.058	0.064	0.059	0.037	0.057	0.056	0.058	0.055	0.058	0.043	0.045
258.00	0.000	0.079	0.059	0.034	0.060	0.057	0.063	0.058	0.036	0.057	0.055	0.058	0.054	0.057	0.042	0.044
259.00	0.001	0.078	0.059	0.033	0.059	0.057	0.063	0.057	0.036	0.056	0.055	0.057	0.054	0.057	0.042	0.044
260.00	0.001	0.077	0.058	0.033	0.058	0.056	0.062	0.057	0.036	0.056	0.054	0.057	0.053	0.056	0.042	0.043
261.00	0.001	0.077	0.058	0.033	0.058	0.056	0.061	0.056	0.036	0.055	0.054	0.056	0.053	0.056	0.041	0.043
262.00	0.001	0.076	0.057	0.032	0.057	0.055	0.061	0.056	0.035	0.055	0.053	0.056	0.052	0.055	0.041	0.043
263.00	0.000	0.075	0.057	0.032	0.056	0.055	0.060	0.055	0.035	0.054	0.052	0.055	0.051	0.055	0.041	0.042
264.00	0.001	0.074	0.056	0.032	0.056	0.054	0.060	0.054	0.034	0.053	0.052	0.054	0.051	0.054	0.040	0.042
265.00	0.001	0.073	0.056	0.032	0.055	0.054	0.059	0.054	0.034	0.053	0.051	0.054	0.050	0.053	0.040	0.042
266.00	0.000	0.072	0.055	0.031	0.055	0.053	0.058	0.053	0.034	0.052	0.051	0.053	0.050	0.053	0.039	0.041
267.00	0.000	0.071	0.054	0.031	0.054	0.052	0.057	0.052	0.034	0.051	0.050	0.052	0.049	0.052	0.039	0.041
268.00	0.000	0.071	0.053	0.031	0.053	0.051	0.057	0.051	0.033	0.051	0.049	0.051	0.048	0.051	0.039	0.040
269.00	0.000	0.070	0.053	0.030	0.053	0.051	0.056	0.051	0.033	0.050	0.049	0.051	0.047	0.050	0.038	0.040
270.00	0.000	0.069	0.052	0.030	0.052	0.050	0.055	0.050	0.032	0.050	0.048	0.050	0.047	0.050	0.038	0.039
271.00	0.000	0.068	0.051	0.030	0.051	0.049	0.054	0.049	0.032	0.049	0.047	0.050	0.046	0.049	0.038	0.039
272.00	0.000	0.067	0.051	0.029	0.050	0.049	0.054	0.049	0.032	0.048	0.047	0.049	0.045	0.048	0.037	0.039
273.00	0.000	0.066	0.050	0.029	0.050	0.048	0.053	0.048	0.031	0.048	0.046	0.048	0.045	0.048	0.037	0.038
274.00	0.000	0.065	0.049	0.029	0.049	0.047	0.052	0.047	0.031	0.047	0.045	0.047	0.044	0.047	0.037	0.038
275.00	0.001	0.064	0.048	0.028	0.048	0.047	0.051	0.046	0.031	0.046	0.044	0.047	0.043	0.046	0.037	0.038
276.00	0.000	0.063	0.047	0.028	0.047	0.046	0.051	0.045	0.030	0.046	0.044	0.046	0.042	0.045	0.036	0.037
277.00	0.001	0.062	0.047	0.028	0.047	0.045	0.050	0.045	0.030	0.045	0.043	0.045	0.042	0.045	0.036	0.037
278.00	0.000	0.061	0.046	0.028	0.046	0.044	0.049	0.044	0.030	0.044	0.042	0.044	0.041	0.044	0.035	0.036
279.00	0.000	0.061	0.046	0.027	0.045	0.043	0.048	0.043	0.030	0.043	0.041	0.043	0.040	0.043	0.035	0.036
280.00	0.000	0.059	0.044	0.027	0.044	0.042	0.047	0.042	0.029	0.043	0.041	0.042	0.039	0.042	0.034	0.036
281.00	0.000	0.058	0.044	0.027	0.043	0.041	0.047	0.041	0.029	0.042	0.040	0.042	0.039	0.041	0.034	0.035
282.00	0.000	0.057	0.043	0.026	0.043	0.041	0.046	0.041	0.028	0.041	0.039	0.041	0.038	0.040	0.033	0.035
283.00	0.000	0.056	0.042	0.026	0.042	0.040	0.045	0.040	0.028	0.041	0.038	0.040	0.037	0.040	0.033	0.034
284.00	0.000	0.055	0.041	0.025	0.041	0.039	0.044	0.039	0.028	0.040	0.037	0.039	0.036	0.039	0.033	0.034
285.00	0.000	0.054	0.040	0.025	0.040	0.038	0.043	0.038	0.027	0.039	0.037	0.038	0.035	0.038	0.032	0.033
286.00	0.000	0.053	0.040	0.025	0.039	0.038	0.043	0.037	0.027	0.038	0.036	0.037	0.035	0.037	0.032	0.033
287.00	0.000	0.052	0.039	0.024	0.038	0.037	0.042	0.036	0.027	0.038	0.035	0.037	0.034	0.036	0.032	0.033
288.00	0.000	0.051	0.038	0.024	0.038	0.036	0.041	0.036	0.026	0.037	0.034	0.036	0.033	0.036	0.031	0.032
289.00	0.000	0.050	0.037	0.024	0.037	0.035	0.040	0.035	0.026	0.036	0.034	0.035	0.032	0.035	0.030	0.032
290.00	0.000	0.050	0.037	0.024	0.036	0.034	0.039	0.034	0.025	0.036	0.033	0.034	0.032	0.034	0.030	0.031
291.00	0.000	0.048	0.036	0.023	0.035	0.033	0.038	0.033	0.025	0.035	0.032	0.033	0.031	0.033	0.030	0.031
292.00	0.000	0.048	0.035	0.023	0.035	0.033	0.038	0.032	0.025	0.034	0.031	0.033	0.030	0.033	0.029	0.030
293.00	0.000	0.047	0.034	0.022	0.033	0.032	0.037	0.031	0.024	0.034	0.031	0.032	0.029	0.032	0.029	0.030
294.00	0.000	0.046	0.034	0.022	0.033	0.031	0.036	0.031	0.024	0.033	0.030	0.031	0.029	0.031	0.029	0.029
295.00	0.000	0.045	0.033	0.022	0.032	0.031	0.036	0.030	0.024	0.032	0.029	0.031	0.028	0.031	0.028	0.029
296.00	0.000	0.044	0.033	0.021	0.032	0.030	0.035	0.030	0.024	0.032	0.029	0.030	0.027	0.030	0.028	0.029
297.00	0.000	0.043	0.032	0.021	0.031	0.029	0.035	0.029	0.023	0.031	0.028	0.029	0.027	0.029	0.027	0.028
298.00	0.001	0.043	0.032	0.021	0.031	0.029	0.034	0.029	0.023	0.031	0.028	0.029	0.026	0.029	0.027	0.028
299.00	0.000	0.042	0.031	0.021	0.030	0.028	0.033	0.028	0.023	0.030	0.027	0.028	0.026	0.028	0.027	0.028
300.00	0.000	0.041	0.030	0.020	0.029	0.027	0.032	0.027	0.022	0.029	0.027	0.028	0.025	0.027	0.026	0.027
301.00	0.000	0.041	0.030	0.020	0.028	0.027	0.032	0.027	0.022	0.029	0.026	0.027	0.025	0.027	0.026	0.027
302.00	0.000	0.040	0.029	0.020	0.028	0.027	0.031	0.026	0.022	0.028	0.025	0.027	0.024	0.026	0.026	0.027
303.00	0.000	0.039	0.029	0.019	0.027	0.026	0.031	0.025	0.022	0.028	0.025	0.026	0.024	0.026	0.025	0.026
304.00	0.000	0.038	0.028	0.019	0.027	0.025	0.030	0.025	0.021	0.028	0.024	0.025	0.023	0.025	0.025	0.026
305.00	0.000	0.038	0.028	0.019	0.026	0.025	0.030	0.024	0.021	0.027	0.024	0.025	0.023	0.025	0.025	0.026
306.00	0.000	0.037	0.027	0.019	0.026	0.024	0.029	0.024	0.021	0.027	0.024	0.025	0.022	0.024	0.025	0.026
307.00	0.000	0.037	0.027	0.019	0.026	0.024	0.029	0.024	0.021	0.026	0.023	0.024	0.022	0.024	0.024	0.025
308.00	0.001	0.036	0.026	0.018	0.025	0.023	0.029	0.023	0.020	0.026	0.023	0.023	0.021	0.024	0.024	0.025
309.00	0.001	0.036	0.026	0.018	0.025	0.023	0.028	0.023	0.020	0.025	0.022	0.023	0.021	0.023	0.023	0.025
310.00	0.000	0.035	0.025	0.018	0.024	0.023	0.027	0.022	0.020	0.025	0.022	0.022	0.021	0.023	0.023	0.024
311.00	0.001	0.034	0.025	0.017	0.023	0.022	0.027	0.022	0.020	0.024	0.021	0.022	0.020	0.022	0.023	0.024
312.00	0.000	0.034	0.025	0.017	0.023	0.022	0.026	0.021	0.019	0.024	0.021	0.022	0.020	0.022	0.023	0.023
313.00	0.001	0.033	0.025	0.017	0.023	0.021	0.026	0.021	0.019	0.024	0.021	0.022	0.020	0.022	0.023	0.023
314.00	0.000	0.033	0.024	0.017	0.022	0.021	0.026	0.021	0.019	0.023	0.020	0.021	0.019	0.021	0.022	0.023
315.00	0.000	0.032	0.023	0.016	0.021	0.021	0.025	0.020	0.018	0.023	0.020	0.021	0.018	0.021	0.022	0.022
316.00	0.000	0.032	0.023	0.016	0.021	0.020	0.025	0.020	0.018	0.023	0.019	0.020	0.018	0.020	0.021	0.022
317.00	0.001	0.032	0.023	0.016	0.021	0.020	0.025	0.019	0.018	0.022	0.019	0.020	0.018	0.020	0.021	0.022
318.00	0.000	0.031	0.023	0.016	0.021	0.020	0.024	0.019	0.018	0.022	0.019	0.019	0.018	0.020	0.021	0.022
319.00	0.000	0.031	0.022	0.016	0.020	0.019	0.024	0.019	0.018	0.022	0.018	0.019	0.017	0.019	0.021	0.022
320.00	0.000	0.030	0.022	0.015	0.020	0.019	0.023	0.019	0.018	0.021	0.018	0.019	0.017	0.019	0.020	0.021
321.00	0.001	0.030	0.022	0.015	0.020	0.019	0.023	0.018	0.017	0.021	0.018	0.019	0.017	0.019	0.020	0.021
322.00	0.001	0.029	0.021	0.015	0.019	0.018	0.023	0.018	0.017	0.021	0.017	0.018	0.016	0.018	0.020	0.021
323.00	0.000	0.029	0.021	0.015	0.019	0.018	0.022	0.017	0.017	0.020	0.017	0.018	0.016	0.018	0.019	0.020
324.00	0.001	0.028	0.021	0.015	0.019	0.017	0.022	0.017	0.017	0.020	0.017	0.018	0.016	0.018	0.019	0.020
325.00	0.000	0.028	0.020	0.015	0.018	0.017	0.022	0.017	0.016	0.020	0.016	0.017	0.015	0.017	0.019	0.020
326.00	0.000	0.028	0.020	0.014	0.018	0.017	0.021	0.017	0.016	0.020	0.016	0.017	0.015	0.017	0.019	0.020
327.00	0.000	0.027	0.020	0.014	0.018	0.016	0.021	0.016	0.016	0.019	0.016	0.017	0.015	0.017	0.018	0.019
328.00	0.000	0.026	0.019	0.014	0.017	0.016	0.020	0.015	0.016	0.019	0.015	0.016	0.014	0.016	0.018	0.019
329.00	0.000	0.026	0.019	0.014	0.017	0.016	0.020	0.015	0.015	0.019	0.015	0.016	0.014	0.016	0.018	0.019
330.00	0.000	0.026	0.019	0.013	0.017	0.016	0.020	0.015	0.015	0.018	0.015	0.016	0.014	0.016	0.018	0.018
331.00	0.000	0.025	0.019	0.013	0.016	0.015	0.019	0.015	0.015	0.018	0.015	0.015	0.014	0.016	0.018	0.018
332.00	0.000	0.025	0.018	0.013	0.016	0.015	0.019	0.015	0.015	0.018	0.014	0.015	0.013	0.015	0.017	0.018
333.00	0.000	0.025	0.018	0.013	0.016	0.015	0.019	0.014	0.015	0.018	0.014	0.015	0.013	0.015	0.017	0.018
334.00	0.000	0.024	0.018	0.013	0.016	0.015	0.019	0.014	0.015	0.018	0.014	0.015	0.013	0.015	0.017	0.018
335.00	0.000	0.024	0.018	0.013	0.015	0.014	0.018	0.014	0.014	0.017	0.014	0.014	0.013	0.015	0.016	0.017
336.00	0.000	0.024	0.017	0.013	0.015	0.014	0.018	0.014	0.014	0.017	0.013	0.014	0.013	0.015	0.016	0.017
337.00	0.000	0.023	0.017	0.012	0.015	0.014	0.018	0.013	0.014	0.017	0.013	0.014	0.012	0.014	0.016	0.016
338.00	0.000	0.023	0.017	0.012	0.015	0.014	0.017	0.013	0.014	0.017	0.013	0.013	0.012	0.014	0.016	0.016
339.00	0.001	0.023	0.017	0.012	0.015	0.014	0.018	0.013	0.014	0.017	0.013	0.014	0.012	0.014	0.016	0.016
340.00	0.002	0.024	0.018	0.014	0.016	0.015	0.018	0.014	0.015	0.018	0.014	0.015	0.013	0.015	0.017	0.018
341.00	0.001	0.022	0.016	0.012	0.014	0.013	0.017	0.012	0.013	0.016	0.012	0.013	0.012	0.014	0.015	0.016
342.00	0.001	0.021	0.016	0.012	0.014	0.013	0.016	0.012	0.013	0.016	0.012	0.013	0.011	0.013	0.015	0.016
343.00	0.000	0.021	0.015	0.011	0.013	0.012	0.016	0.012	0.012	0.015	0.012	0.012	0.011	0.013	0.014	0.015
344.00	-0.000	0.021	0.015	0.011	0.013	0.012	0.016	0.011	0.012	0.015	0.011	0.012	0.010	0.012	0.014	0.015
345.00	0.000	0.021	0.015	0.011	0.013	0.012	0.016	0.012	0.013	0.015	0.011	0.012	0.011	0.012	0.014	0.015
346.00	0.000	0.020	0.015	0.011	0.013	0.012	0.015	0.011	0.012	0.015	0.011	0.012	0.010	0.012	0.014	0.015
347.00	0.000	0.020	0.015	0.011	0.012	0.011	0.015	0.011	0.012	0.015	0.011	0.012	0.010	0.012	0.014	0.014
348.00	0.000	0.020	0.015	0.011	0.012	0.011	0.015	0.011	0.012	0.015	0.011	0.011	0.010	0.012	0.014	0.014
349.00	0.000	0.019	0.014	0.011	0.012	0.011	0.014	0.011	0.012	0.014	0.011	0.011	0.009	0.012	0.013	0.014
350.00	0.000	0.019	0.015	0.011	0.012	0.011	0.014	0.010	0.012	0.014	0.011	0.011	0.010	0.012	0.013	0.014
351.00	-0.000	0.019	0.014	0.010	0.012	0.011	0.014	0.010	0.011	0.014	0.010	0.011	0.009	0.011	0.013	0.013
352.00	-0.000	0.018	0.014	0.010	0.011	0.010	0.014	0.010	0.011	0.014	0.010	0.010	0.009	0.011	0.013	0.013
353.00	0.000	0.018	0.014	0.010	0.011	0.011	0.014	0.010	0.011	0.014	0.010	0.010	0.009	0.011	0.013	0.013
354.00	-0.000	0.018	0.014	0.010	0.011	0.010	0.013	0.009	0.011	0.013	0.009	0.010	0.008	0.010	0.012	0.013
355.00	0.000	0.018	0.013	0.010	0.011	0.010	0.013	0.010	0.011	0.013	0.009	0.010	0.008	0.010	0.012	0.012
356.00	0.000	0.017	0.013	0.009	0.010	0.010	0.013	0.009	0.011	0.013	0.009	0.010	0.008	0.010	0.012	0.012
357.00	0.000	0.017	0.013	0.010	0.010	0.010	0.013	0.009	0.010	0.013	0.009	0.010	0.008	0.010	0.012	0.012
358.00	0.000	0.017	0.013	0.010	0.010	0.010	0.013	0.009	0.011	0.013	0.009	0.010	0.008	0.010	0.011	0.012
359.00	0.000	0.017	0.013	0.010	0.010	0.009	0.012	0.009	0.010	0.012	0.009	0.009	0.008	0.010	0.011	0.012
360.00	0.000	0.016	0.012	0.009	0.010	0.009	0.012	0.009	0.010	0.012	0.009	0.009	0.008	0.010	0.011	0.012
361.00	0.000	0.016	0.012	0.009	0.009	0.009	0.012	0.009	0.010	0.012	0.008	0.009	0.007	0.009	0.011	0.011
362.00	0.000	0.016	0.012	0.009	0.010	0.009	0.012	0.008	0.010	0.012	0.008	0.009	0.007	0.009	0.011	0.011
363.00	0.000	0.016	0.012	0.009	0.009	0.009	0.012	0.008	0.010	0.012	0.008	0.009	0.007	0.009	0.011	0.011
364.00	-0.000	0.015	0.012	0.009	0.009	0.008	0.011	0.008	0.009	0.012	0.008	0.008	0.007	0.009	0.010	0.011
365.00	0.000	0.015	0.012	0.009	0.009	0.008	0.011	0.008	0.009	0.011	0.008	0.008	0.007	0.008	0.010	0.010
366.00	0.000	0.015	0.012	0.008	0.009	0.008	0.011	0.008	0.009	0.012	0.007	0.008	0.007	0.008	0.010	0.011
367.00	0.000	0.015	0.012	0.008	0.009	0.008	0.011	0.007	0.009	0.011	0.008	0.008	0.007	0.008	0.010	0.011
368.00	-0.000	0.014	0.011	0.008	0.009	0.008	0.011	0.007	0.009	0.011	0.007	0.008	0.006	0.008	0.010	0.010
369.00	-0.000	0.014	0.011	0.008	0.008	0.007	0.010	0.007	0.009	0.011	0.007	0.008	0.006	0.008	0.009	0.010
370.00	0.000	0.014	0.011	0.008	0.008	0.008	0.010	0.007	0.009	0.011	0.007	0.007	0.006	0.008	0.009	0.010
371.00	0.000	0.014	0.011	0.008	0.008	0.008	0.010	0.007	0.009	0.011	0.007	0.008	0.006	0.008	0.009	0.010
372.00	0.000	0.014	0.011	0.008	0.008	0.007	0.010	0.007	0.008	0.011	0.007	0.007	0.006	0.008	0.009	0.010
373.00	0.000	0.013	0.011	0.008	0.008	0.007	0.010	0.007	0.008	0.011	0.007	0.007	0.006	0.008	0.009	0.009
374.00	0.000	0.013	0.011	0.008	0.008	0.007	0.010	0.006	0.008	0.010	0.006	0.007	0.006	0.007	0.008	0.009
375.00	0.000	0.013	0.010	0.008	0.008	0.007	0.010	0.007	0.008	0.010	0.006	0.007	0.006	0.007	0.009	0.009
376.00	0.000	0.013	0.010	0.008	0.007	0.007	0.009	0.006	0.008	0.010	0.006	0.007	0.006	0.007	0.009	0.009
377.00	-0.000	0.012	0.010	0.007	0.007	0.007	0.009	0.006	0.008	0.010	0.006	0.007	0.005	0.007	0.008	0.009
378.00	0.000	0.012	0.010	0.007	0.007	0.007	0.009	0.006	0.008	0.010	0.006	0.007	0.005	0.007	0.008	0.009
379.00	0.000	0.012	0.010	0.007	0.007	0.006	0.009	0.006	0.008	0.010	0.006	0.007	0.005	0.007	0.008	0.009
380.00	0.000	0.012	0.010	0.007	0.007	0.006	0.009	0.006	0.007	0.010	0.006	0.006	0.005	0.007	0.008	0.009
381.00	0.000	0.012	0.010	0.007	0.007	0.006	0.009	0.006	0.007	0.009	0.006	0.006	0.005	0.007	0.008	0.008
382.00	0.000	0.012	0.010	0.007	0.007	0.006	0.008	0.006	0.007	0.009	0.006	0.006	0.005	0.006	0.008	0.008
383.00	0.000	0.011	0.009	0.007	0.007	0.006	0.008	0.005	0.007	0.009	0.005	0.006	0.005	0.006	0.008	0.008
384.00	0.000	0.011	0.009	0.007	0.007	0.006	0.008	0.005	0.007	0.009	0.005	0.006	0.005	0.006	0.007	0.008
385.00	0.000	0.011	0.009	0.007	0.006	0.006	0.008	0.005	0.007	0.009	0.005	0.006	0.005	0.006	0.007	0.008
386.00	0.000	0.011	0.009	0.007	0.006	0.006	0.008	0.005	0.007	0.009	0.005	0.006	0.005	0.006	0.007	0.008
387.00	0.000	0.011	0.009	0.007	0.006	0.006	0.008	0.005	0.007	0.009	0.005	0.006	0.004	0.006	0.007	0.008
388.00	0.000	0.011	0.009	0.007	0.006	0.006	0.008	0.005	0.007	0.009	0.005	0.006	0.004	0.006	0.007	0.008
389.00	0.000	0.010	0.009	0.006	0.006	0.005	0.008	0.005	0.007	0.009	0.005	0.005	0.004	0.006	0.007	0.007
390.00	0.000	0.010	0.009	0.006	0.006	0.005	0.007	0.005	0.007	0.008	0.005	0.005	0.004	0.006	0.007	0.007
391.00	0.000	0.010	0.009	0.006	0.006	0.005	0.007	0.004	0.007	0.008	0.005	0.005	0.004	0.005	0.007	0.007
392.00	0.000	0.010	0.009	0.006	0.006	0.005	0.007	0.004	0.006	0.008	0.004	0.005	0.004	0.005	0.006	0.007
393.00	0.000	0.010	0.008	0.006	0.006	0.005	0.007	0.004	0.006	0.008	0.004	0.005	0.004	0.005	0.006	0.007
394.00	0.000	0.010	0.008	0.006	0.005	0.005	0.007	0.004	0.006	0.008	0.004	0.005	0.004	0.005	0.006	0.007
395.00	0.000	0.009	0.008	0.006	0.005	0.005	0.007	0.004	0.006	0.008	0.004	0.005	0.004	0.005	0.006	0.007
396.00	-0.000	0.009	0.008	0.006	0.005	0.005	0.007	0.004	0.006	0.008	0.004	0.005	0.003	0.005	0.006	0.007
397.00	-0.000	0.009	0.008	0.006	0.005	0.005	0.006	0.004	0.006	0.008	0.004	0.005	0.003	0.005	0.006	0.006
398.00	-0.000	0.009	0.008	0.006	0.005	0.004	0.006	0.004	0.006	0.008	0.004	0.004	0.003	0.005	0.006	0.006
399.00	-0.000	0.009	0.008	0.006	0.005	0.004	0.006	0.004	0.006	0.008	0.004	0.004	0.003	0.005	0.006	0.006
400.00	0.000	0.009	0.008	0.006	0.005	0.004	0.006	0.004	0.006	0.008	0.004	0.004	0.003	0.005	0.006	0.006
401.00	0.000	0.009	0.008	0.006	0.005	0.004	0.006	0.004	0.006	0.008	0.004	0.004	0.003	0.005	0.006	0.006
402.00	0.000	0.009	0.008	0.006	0.005	0.004	0.006	0.004	0.006	0.008	0.004	0.004	0.003	0.005	0.006	0.006
403.00	0.000	0.008	0.008	0.005	0.005	0.004	0.006	0.003	0.006	0.007	0.004	0.004	0.003	0.004	0.005	0.006
404.00	0.000	0.008	0.007	0.005	0.005	0.004	0.006	0.003	0.005	0.007	0.004	0.004	0.003	0.004	0.005	0.006
405.00	0.000	0.008	0.007	0.005	0.005	0.004	0.006	0.003	0.005	0.007	0.003	0.004	0.003	0.004	0.005	0.006
406.00	0.000	0.008	0.007	0.005	0.005	0.004	0.006	0.003	0.005	0.007	0.003	0.004	0.003	0.004	0.005	0.005
407.00	-0.000	0.008	0.007	0.005	0.004	0.004	0.005	0.003	0.005	0.007	0.003	0.004	0.003	0.004	0.005	0.005
408.00	-0.000	0.008	0.007	0.005	0.004	0.004	0.006	0.003	0.005	0.007	0.003	0.004	0.003	0.004	0.005	0.005
409.00	0.000	0.008	0.007	0.005	0.004	0.004	0.005	0.003	0.005	0.007	0.003	0.004	0.003	0.004	0.005	0.005
410.00	0.000	0.008	0.007	0.005	0.004	0.004	0.005	0.003	0.005	0.007	0.003	0.004	0.003	0.004	0.005	0.005
411.00	0.000	0.007	0.007	0.005	0.004	0.004	0.005	0.003	0.005	0.007	0.003	0.004	0.003	0.004	0.005	0.005
412.00	0.000	0.007	0.007	0.005	0.004	0.003	0.005	0.003	0.005	0.007	0.003	0.004	0.003	0.004	0.005	0.005
413.00	0.000	0.007	0.007	0.005	0.004	0.004	0.005	0.003	0.005	0.007	0.003	0.004	0.003	0.004	0.005	0.005
414.00	0.000	0.007	0.007	0.005	0.004	0.003	0.005	0.003	0.005	0.007	0.003	0.003	0.003	0.004	0.005	0.005
415.00	0.000	0.007	0.007	0.005	0.004	0.003	0.005	0.003	0.005	0.007	0.003	0.003	0.002	0.004	0.005	0.005
416.00	0.000	0.007	0.007	0.005	0.004	0.003	0.005	0.003	0.005	0.007	0.003	0.003	0.003	0.004	0.004	0.005
417.00	0.000	0.007	0.007	0.005	0.004	0.003	0.005	0.003	0.005	0.006	0.003	0.003	0.002	0.004	0.004	0.005
418.00	-0.000	0.007	0.007	0.005	0.004	0.003	0.005	0.003	0.005	0.006	0.003	0.003	0.002	0.003	0.004	0.005
419.00	-0.000	0.007	0.007	0.005	0.004	0.003	0.005	0.002	0.005	0.006	0.003	0.003	0.002	0.003	0.004	0.005
420.00	-0.000	0.007	0.007	0.005	0.004	0.003	0.005	0.002	0.005	0.006	0.002	0.003	0.002	0.003	0.004	0.004
421.00	-0.000	0.006	0.006	0.005	0.004	0.003	0.005	0.002	0.005	0.006	0.002	0.003	0.002	0.003	0.004	0.004
422.00	0.000	0.006	0.006	0.005	0.003	0.003	0.004	0.002	0.005	0.006	0.002	0.003	0.002	0.003	0.004	0.005
423.00	0.000	0.006	0.006	0.005	0.004	0.003	0.005	0.003	0.005	0.006	0.002	0.003	0.002	0.003	0.004	0.005
424.00	0.000	0.006	0.006	0.005	0.003	0.003	0.004	0.002	0.005	0.006	0.002	0.003	0.002	0.003	0.004	0.004
425.00	0.000	0.006	0.006	0.005	0.003	0.003	0.004	0.002	0.004	0.006	0.002	0.003	0.002	0.003	0.004	0.004
426.00	0.000	0.006	0.006	0.005	0.003	0.003	0.004	0.002	0.004	0.006	0.002	0.003	0.002	0.003	0.004	0.004
427.00	0.000	0.006	0.006	0.005	0.003	0.003	0.004	0.002	0.004	0.006	0.002	0.003	0.002	0.003	0.004	0.004
428.00	0.000	0.006	0.006	0.005	0.003	0.003	0.004	0.002	0.004	0.006	0.002	0.003	0.002	0.003	0.004	0.004
429.00	0.000	0.006	0.006	0.004	0.003	0.002	0.004	0.002	0.004	0.006	0.002	0.003	0.002	0.003	0.004	0.004
430.00	0.000	0.006	0.006	0.004	0.003	0.002	0.004	0.002	0.004	0.006	0.002	0.002	0.002	0.003	0.003	0.004
431.00	0.000	0.005	0.006	0.004	0.003	0.002	0.004	0.002	0.004	0.006	0.002	0.002	0.002	0.003	0.003	0.004
432.00	0.000	0.005	0.006	0.004	0.003	0.002	0.004	0.002	0.004	0.006	0.002	0.002	0.002	0.003	0.003	0.004
433.00	-0.000	0.005	0.006	0.004	0.003	0.002	0.004	0.002	0.004	0.006	0.002	0.002	0.001	0.003	0.003	0.004
434.00	0.000	0.005	0.006	0.004	0.003	0.002	0.004	0.002	0.004	0.006	0.002	0.002	0.001	0.003	0.003	0.004
435.00	-0.000	0.005	0.006	0.004	0.003	0.002	0.003	0.002	0.004	0.005	0.002	0.002	0.001	0.002	0.003	0.003
436.00	-0.000	0.005	0.006	0.004	0.003	0.002	0.003	0.001	0.004	0.005	0.002	0.002	0.001	0.002	0.003	0.003
437.00	-0.000	0.005	0.006	0.004	0.003	0.002	0.003	0.002	0.004	0.005	0.002	0.002	0.001	0.002	0.003	0.003
438.00	-0.000	0.005	0.006	0.004	0.003	0.002	0.003	0.001	0.004	0.005	0.002	0.002	0.001	0.002	0.003	0.003
439.00	-0.000	0.005	0.006	0.004	0.002	0.002	0.003	0.001	0.004	0.005	0.002	0.002	0.001	0.002	0.003	0.003
440.00	-0.000	0.005	0.006	0.004	0.003	0.002	0.003	0.001	0.004	0.005	0.002	0.002	0.001	0.002	0.003	0.003
441.00	-0.000	0.005	0.005	0.004	0.003	0.002	0.003	0.001	0.004	0.005	0.002	0.002	0.001	0.002	0.003	0.003
442.00	-0.000	0.005	0.005	0.004	0.002	0.002	0.003	0.001	0.004	0.005	0.001	0.002	0.001	0.002	0.003	0.003
443.00	0.000	0.005	0.005	0.004	0.002	0.002	0.003	0.001	0.004	0.005	0.002	0.002	0.001	0.002	0.003	0.003
444.00	-0.000	0.004	0.005	0.004	0.002	0.002	0.003	0.001	0.004	0.005	0.001	0.002	0.001	0.002	0.003	0.003
445.00	-0.000	0.004	0.005	0.004	0.002	0.002	0.003	0.001	0.004	0.005	0.001	0.002	0.001	0.002	0.003	0.003
446.00	-0.000	0.004	0.005	0.004	0.002	0.002	0.003	0.001	0.004	0.005	0.001	0.002	0.001	0.002	0.003	0.003
447.00	-0.000	0.004	0.005	0.004	0.002	0.002	0.003	0.001	0.004	0.005	0.001	0.002	0.001	0.002	0.003	0.003
448.00	-0.000	0.004	0.005	0.004	0.002	0.002	0.003	0.001	0.004	0.005	0.001	0.002	0.001	0.002	0.003	0.003
449.00	-0.000	0.004	0.005	0.004	0.002	0.002	0.003	0.001	0.004	0.005	0.001	0.002	0.001	0.002	0.002	0.003
450.00	-0.000	0.004	0.005	0.004	0.002	0.002	0.003	0.001	0.003	0.005	0.001	0.002	0.001	0.002	0.002	0.003
451.00	-0.000	0.004	0.005	0.004	0.002	0.002	0.003	0.001	0.003	0.005	0.001	0.002	0.001	0.002	0.002	0.003
452.00	-0.000	0.004	0.005	0.003	0.002	0.001	0.003	0.001	0.003	0.005	0.001	0.001	0.001	0.002	0.002	0.003
453.00	-0.000	0.004	0.005	0.003	0.002	0.002	0.003	0.001	0.003	0.005	0.001	0.001	0.001	0.002	0.002	0.003
454.00	0.000	0.004	0.005	0.004	0.002	0.002	0.003	0.001	0.003	0.005	0.001	0.002	0.001	0.002	0.002	0.003
455.00	0.000	0.004	0.005	0.004	0.002	0.002	0.003	0.001	0.003	0.005	0.001	0.002	0.001	0.002	0.002	0.003
456.00	0.000	0.004	0.005	0.003	0.002	0.001	0.003	0.001	0.003	0.005	0.001	0.002	0.001	0.002	0.002	0.003
457.00	0.000	0.004	0.005	0.003	0.002	0.001	0.002	0.001	0.003	0.005	0.001	0.001	0.001	0.002	0.002	0.003
458.00	-0.000	0.004	0.005	0.003	0.002	0.001	0.002	0.001	0.003	0.004	0.001	0.001	0.001	0.002	0.002	0.003
459.00	-0.000	0.004	0.005	0.003	0.002	0.001	0.002	0.001	0.003	0.004	0.001	0.001	0.001	0.002	0.002	0.002
460.00	-0.000	0.004	0.005	0.003	0.002	0.001	0.002	0.001	0.003	0.004	0.001	0.001	0.001	0.002	0.002	0.003
461.00	-0.000	0.004	0.005	0.003	0.002	0.001	0.002	0.001	0.003	0.004	0.001	0.001	0.001	0.002	0.002	0.003
462.00	-0.000	0.004	0.005	0.003	0.002	0.001	0.002	0.001	0.003	0.004	0.001	0.001	0.001	0.002	0.002	0.002
463.00	-0.000	0.004	0.005	0.003	0.002	0.001	0.002	0.001	0.003	0.004	0.001	0.001	0.001	0.001	0.002	0.002
464.00	-0.000	0.003	0.005	0.003	0.002	0.001	0.002	0.001	0.003	0.004	0.001	0.001	0.001	0.002	0.002	0.002
465.00	-0.000	0.003	0.005	0.003	0.002	0.001	0.002	0.001	0.003	0.004	0.001	0.001	0.000	0.001	0.002	0.002
466.00	-0.000	0.003	0.005	0.003	0.002	0.001	0.002	0.001	0.003	0.004	0.001	0.001	0.000	0.002	0.002	0.002
467.00	-0.000	0.003	0.005	0.003	0.002	0.001	0.002	0.001	0.003	0.004	0.001	0.001	0.000	0.001	0.002	0.002
468.00	-0.000	0.003	0.005	0.003	0.002	0.001	0.002	0.001	0.003	0.004	0.001	0.001	0.001	0.001	0.002	0.002
469.00	-0.000	0.003	0.005	0.003	0.002	0.001	0.002	0.001	0.003	0.004	0.001	0.001	0.001	0.001	0.002	0.002
470.00	-0.000	0.003	0.005	0.003	0.002	0.001	0.002	0.001	0.003	0.004	0.001	0.001	0.001	0.001	0.002	0.002
471.00	-0.000	0.003	0.005	0.003	0.002	0.001	0.002	0.000	0.003	0.004	0.001	0.001	0.000	0.001	0.002	0.002
472.00	-0.000	0.003	0.005	0.003	0.002	0.001	0.002	0.000	0.003	0.004	0.001	0.001	0.001	0.001	0.002	0.002
473.00	0.000	0.003	0.005	0.003	0.002	0.001	0.002	0.000	0.003	0.004	0.001	0.001	0.000	0.001	0.002	0.002
474.00	-0.000	0.003	0.005	0.003	0.002	0.001	0.002	0.000	0.003	0.004	0.001	0.001	0.000	0.001	0.002	0.002
475.00	-0.000	0.003	0.004	0.003	0.002	0.001	0.002	0.000	0.003	0.004	0.001	0.001	0.000	0.001	0.002	0.002
476.00	-0.000	0.003	0.004	0.003	0.002	0.001	0.002	0.000	0.003	0.004	0.001	0.001	0.000	0.001	0.002	0.002
477.00	-0.000	0.003	0.004	0.003	0.001	0.001	0.002	0.000	0.003	0.004	0.001	0.001	0.000	0.001	0.002	0.002
478.00	-0.000	0.003	0.004	0.003	0.001	0.001	0.002	0.000	0.003	0.004	0.001	0.001	0.000	0.001	0.001	0.002
479.00	-0.000	0.003	0.004	0.003	0.001	0.001	0.001	0.000	0.003	0.004	0.001	0.001	0.000	0.001	0.001	0.002
480.00	-0.000	0.003	0.004	0.003	0.001	0.001	0.001	0.000	0.003	0.004	0.000	0.001	0.000	0.001	0.001	0.002
481.00	-0.000	0.003	0.004	0.003	0.001	0.001	0.001	0.000	0.003	0.004	0.001	0.001	0.000	0.001	0.001	0.002
482.00	-0.000	0.003	0.004	0.003	0.001	0.001	0.002	0.000	0.003	0.004	0.000	0.001	0.000	0.001	0.001	0.002
483.00	-0.000	0.002	0.004	0.003	0.001	0.001	0.001	0.000	0.003	0.004	0.000	0.001	0.000	0.001	0.001	0.002
484.00	-0.000	0.002	0.004	0.003	0.001	0.001	0.001	0.000	0.003	0.004	0.000	0.001	0.000	0.001	0.001	0.002
485.00	-0.000	0.002	0.004	0.003	0.001	0.001	0.001	0.000	0.003	0.004	0.000	0.001	0.000	0.001	0.001	0.002
486.00	-0.000	0.002	0.004	0.003	0.001	0.001	0.001	0.000	0.003	0.004	0.000	0.001	0.000	0.001	0.001	0.002
487.00	-0.000	0.002	0.004	0.003	0.001	0.001	0.001	0.000	0.003	0.004	0.000	0.001	0.000	0.001	0.001	0.002
488.00	-0.000	0.002	0.004	0.003	0.001	0.001	0.001	0.000	0.003	0.004	0.000	0.001	0.000	0.001	0.001	0.002
489.00	-0.000	0.002	0.004	0.003	0.001	0.001	0.001	0.000	0.003	0.004	0.000	0.001	0.000	0.001	0.001	0.002
490.00	-0.000	0.002	0.004	0.003	0.001	0.001	0.001	0.000	0.003	0.004	0.000	0.001	0.000	0.001	0.001	0.002
491.00	-0.000	0.002	0.004	0.003	0.001	0.000	0.001	0.000	0.003	0.003	0.000	0.001	0.000	0.001	0.001	0.001
492.00	-0.000	0.002	0.004	0.003	0.001	0.000	0.001	0.000	0.003	0.003	0.000	0.001	0.000	0.001	0.001	0.001
493.00	-0.000	0.002	0.004	0.002	0.001	0.000	0.001	0.000	0.003	0.003	0.000	0.001	0.000	0.001	0.001	0.001
494.00	-0.000	0.002	0.004	0.003	0.001	0.000	0.001	0.000	0.003	0.003	0.000	0.001	0.000	0.001	0.001	0.001
495.00	-0.000	0.002	0.004	0.003	0.001	0.001	0.001	0.000	0.003	0.003	0.000	0.001	0.000	0.001	0.001	0.001
496.00	-0.000	0.002	0.004	0.003	0.001	0.001	0.001	0.000	0.003	0.003	0.000	0.001	0.000	0.001	0.001	0.002
497.00	-0.000	0.002	0.004	0.003	0.001	0.001	0.001	0.000	0.003	0.003	0.000	0.001	0.000	0.001	0.001	0.001
498.00	-0.000	0.002	0.004	0.003	0.001	0.001	0.001	0.000	0.003	0.003	0.000	0.001	0.000	0.001	0.001	0.001
499.00	-0.000	0.002	0.004	0.002	0.001	0.000	0.001	0.000	0.002	0.003	0.000	0.001	-0.000	0.001	0.001	0.001
500.00	-0.000	0.002	0.004	0.002	0.001	0.000	0.001	0.000	0.002	0.003	0.000	0.001	-0.000	0.001	0.001	0.001
501.00	-0.000	0.002	0.004	0.002	0.001	0.000	0.001	0.000	0.002	0.003	0.000	0.001	0.000	0.001	0.001	0.001
502.00	-0.000	0.002	0.004	0.002	0.001	0.000	0.001	0.000	0.002	0.003	0.000	0.001	0.000	0.001	0.001	0.001
503.00	-0.000	0.002	0.004	0.002	0.001	0.000	0.001	0.000	0.002	0.003	0.000	0.000	-0.000	0.001	0.001	0.001
504.00	-0.000	0.002	0.004	0.002	0.001	0.000	0.001	-0.000	0.002	0.003	0.000	0.000	-0.000	0.001	0.001	0.001
505.00	-0.000	0.002	0.004	0.002	0.001	0.000	0.001	-0.000	0.002	0.003	0.000	0.000	0.000	0.001	0.001	0.001
506.00	-0.000	0.002	0.004	0.002	0.001	0.001	0.001	0.000	0.002	0.003	0.000	0.001	0.000	0.001	0.001	0.001
507.00	-0.000	0.002	0.004	0.002	0.001	0.000	0.001	0.000	0.002	0.003	0.000	0.000	-0.000	0.001	0.001	0.001
508.00	-0.000	0.002	0.004	0.002	0.001	0.000	0.001	-0.000	0.002	0.003	0.000	0.000	-0.000	0.001	0.001	0.001
509.00	-0.000	0.002	0.004	0.002	0.001	0.000	0.001	-0.000	0.002	0.003	0.000	0.000	-0.000	0.001	0.001	0.001
510.00	-0.000	0.002	0.004	0.002	0.001	0.000	0.001	-0.000	0.002	0.003	0.000	0.000	-0.000	0.001	0.001	0.001
511.00	-0.000	0.002	0.004	0.002	0.001	0.000	0.001	-0.000	0.002	0.003	0.000	0.000	-0.000	0.001	0.001	0.001
512.00	-0.000	0.002	0.004	0.002	0.001	0.000	0.001	-0.000	0.002	0.003	0.000	0.000	-0.000	0.001	0.001	0.001
513.00	-0.000	0.002	0.004	0.002	0.001	0.000	0.001	-0.000	0.002	0.003	0.000	0.000	-0.000	0.001	0.001	0.001
514.00	-0.000	0.002	0.004	0.002	0.001	0.000	0.001	-0.000	0.002	0.003	0.000	0.000	-0.000	0.001	0.001	0.001
515.00	-0.000	0.002	0.004	0.002	0.001	0.000	0.001	-0.000	0.002	0.003	0.000	0.000	-0.000	0.001	0.001	0.001
516.00	-0.000	0.002	0.004	0.002	0.001	0.000	0.001	-0.000	0.002	0.003	0.000	0.000	-0.000	0.001	0.001	0.001
517.00	-0.000	0.002	0.004	0.002	0.001	0.000	0.001	-0.000	0.002	0.003	0.000	0.000	-0.000	0.001	0.001	0.001
518.00	-0.000	0.002	0.004	0.002	0.001	0.000	0.001	-0.000	0.002	0.003	0.000	0.000	-0.000	0.001	0.001	0.001
519.00	-0.000	0.002	0.004	0.002	0.001	0.000	0.001	-0.000	0.002	0.003	0.000	0.000	-0.000	0.001	0.001	0.001
520.00	-0.000	0.002	0.004	0.002	0.001	0.000	0.001	-0.000	0.002	0.003	0.000	0.000	-0.000	0.001	0.001	0.001
521.00	-0.000	0.002	0.004	0.002	0.001	0.000	0.001	-0.000	0.002	0.003	0.000	0.000	-0.000	0.001	0.001	0.001
522.00	-0.000	0.002	0.004	0.002	0.001	0.000	0.001	-0.000	0.002	0.003	0.000	0.000	-0.000	0.001	0.001	0.001
523.00	-0.000	0.002	0.004	0.002	0.001	0.000	0.001	-0.000	0.002	0.003	0.000	0.000	-0.000	0.001	0.001	0.001
524.00	-0.000	0.002	0.004	0.002	0.001	0.000	0.001	-0.000	0.002	0.003	0.000	0.000	-0.000	0.001	0.001	0.001
525.00	-0.000	0.002	0.004	0.002	0.001	0.000	0.001	-0.000	0.002	0.003	0.000	0.000	-0.000	0.001	0.001	0.001
526.00	-0.000	0.002	0.004	0.002	0.001	0.000	0.001	-0.000	0.002	0.003	0.000	0.000	-0.000	0.001	0.001	0.001
527.00	-0.000	0.002	0.004	0.002	0.001	0.000	0.001	-0.000	0.002	0.003	0.000	0.000	-0.000	0.000	0.001	0.001
528.00	-0.000	0.002	0.004	0.002	0.001	0.000	0.001	-0.000	0.002	0.003	0.000	0.000	-0.000	0.000	0.001	0.001
529.00	-0.000	0.001	0.004	0.002	0.001	0.000	0.001	-0.000	0.002	0.003	0.000	0.000	-0.000	0.000	0.001	0.001
530.00	-0.000	0.001	0.004	0.002	0.001	0.000	0.001	-0.000	0.002	0.003	0.000	0.000	-0.000	0.000	0.001	0.001
531.00	-0.000	0.001	0.004	0.002	0.001	0.000	0.000	-0.000	0.002	0.003	-0.000	0.000	-0.000	0.000	0.001	0.001
532.00	-0.000	0.001	0.004	0.002	0.001	0.000	0.001	-0.000	0.002	0.003	0.000	0.000	-0.000	0.000	0.001	0.001
533.00	-0.000	0.001	0.004	0.002	0.001	0.000	0.001	-0.000	0.002	0.003	0.000	0.000	-0.000	0.000	0.001	0.001
534.00	-0.000	0.001	0.004	0.002	0.001	0.000	0.001	-0.000	0.002	0.003	0.000	0.000	-0.000	0.000	0.001	0.001
535.00	0.000	0.002	0.004	0.002	0.001	0.000	0.001	-0.000	0.002	0.003	0.000	0.000	0.000	0.001	0.001	0.001
536.00	0.001	0.002	0.005	0.003	0.002	0.001	0.002	0.001	0.003	0.004	0.001	0.001	0.001	0.002	0.002	0.002
537.00	-0.000	0.001	0.004	0.002	0.001	0.000	0.001	-0.000	0.002	0.003	0.000	0.000	-0.000	0.001	0.001	0.001
538.00	-0.000	0.001	0.003	0.002	0.001	0.000	0.000	-0.000	0.002	0.003	-0.000	0.000	-0.000	0.000	0.000	0.001
539.00	-0.000	0.001	0.003	0.002	0.001	0.000	0.000	-0.001	0.002	0.003	-0.000	-0.000	-0.000	0.000	0.000	0.001
540.00	-0.000	0.001	0.004	0.002	0.001	0.000	0.000	-0.000	0.002	0.003	-0.000	0.000	-0.000	0.000	0.000	0.001
541.00	-0.000	0.001	0.003	0.002	0.001	0.000	0.000	-0.000	0.002	0.003	-0.000	0.000	-0.000	0.000	0.000	0.001
542.00	-0.000	0.001	0.004	0.002	0.001	0.000	0.000	-0.000	0.002	0.003	-0.000	0.000	-0.000	0.000	0.000	0.001
543.00	-0.000	0.001	0.003	0.002	0.001	0.000	0.000	-0.000	0.002	0.003	-0.000	0.000	-0.000	0.000	0.000	0.001
544.00	-0.000	0.001	0.003	0.002	0.000	0.000	0.000	-0.000	0.002	0.003	-0.000	0.000	-0.000	0.000	0.000	0.001
545.00	-0.000	0.001	0.003	0.002	0.001	0.000	0.000	-0.000	0.002	0.003	0.000	-0.000	-0.000	0.000	0.000	0.001
546.00	-0.000	0.001	0.003	0.002	0.000	0.000	0.000	-0.000	0.002	0.003	-0.000	-0.000	-0.000	0.000	0.000	0.001
547.00	-0.000	0.001	0.003	0.002	0.000	0.000	0.000	-0.001	0.002	0.003	-0.000	-0.000	-0.000	0.000	0.000	0.001
548.00	-0.000	0.001	0.003	0.002	0.001	0.000	0.000	-0.000	0.002	0.003	0.000	-0.000	-0.000	0.000	0.000	0.001
549.00	-0.000	0.001	0.003	0.002	0.001	0.000	0.000	-0.001	0.002	0.003	-0.000	-0.000	-0.000	0.000	0.000	0.001
550.00	-0.000	0.001	0.003	0.002	0.001	0.000	0.000	-0.001	0.002	0.003	0.000	-0.000	-0.000	0.000	0.000	0.001
551.00	-0.000	0.001	0.003	0.002	0.000	-0.000	0.000	-0.001	0.002	0.003	-0.000	-0.000	-0.000	0.000	0.000	0.001
552.00	-0.000	0.001	0.003	0.002	0.001	-0.000	0.000	-0.001	0.002	0.003	-0.000	-0.000	-0.000	0.000	0.000	0.001
553.00	-0.000	0.001	0.003	0.002	0.001	0.000	0.000	-0.001	0.002	0.003	-0.000	-0.000	-0.000	0.000	0.000	0.001
554.00	-0.000	0.001	0.003	0.002	0.001	-0.000	0.000	-0.001	0.002	0.002	-0.000	-0.000	-0.000	0.000	0.000	0.001
555.00	-0.000	0.001	0.003	0.002	0.000	0.000	0.000	-0.001	0.002	0.003	0.000	0.000	-0.000	0.000	0.000	0.001
556.00	-0.000	0.001	0.003	0.001	0.000	0.000	0.000	-0.001	0.002	0.003	-0.000	-0.000	-0.000	0.000	0.000	0.001
557.00	-0.000	0.001	0.003	0.002	0.000	-0.000	0.000	-0.001	0.002	0.003	-0.000	-0.000	-0.000	0.000	0.000	0.001
558.00	-0.000	0.001	0.003	0.002	0.000	0.000	0.000	-0.001	0.002	0.003	-0.000	-0.000	-0.000	0.000	0.000	0.001
559.00	-0.000	0.001	0.003	0.002	0.000	0.000	0.000	-0.001	0.002	0.002	-0.000	-0.000	-0.000	0.000	0.000	0.001
560.00	-0.000	0.001	0.003	0.002	0.001	0.000	0.000	-0.000	0.002	0.003	0.000	-0.000	-0.000	0.000	0.000	0.001
561.00	-0.000	0.001	0.003	0.002	0.000	0.000	0.000	-0.000	0.002	0.002	-0.000	-0.000	-0.000	0.000	0.000	0.001
562.00	-0.000	0.001	0.003	0.001	0.000	0.000	0.000	-0.001	0.002	0.002	-0.000	-0.000	-0.000	0.000	0.000	0.001
563.00	-0.000	0.001	0.003	0.002	0.000	0.000	0.000	-0.001	0.002	0.002	-0.000	-0.000	-0.000	0.000	0.000	0.001
564.00	-0.000	0.001	0.003	0.002	0.000	0.000	0.000	-0.001	0.002	0.002	-0.000	-0.000	-0.000	0.000	0.000	0.001
565.00	-0.000	0.001	0.003	0.002	0.000	0.000	0.000	-0.001	0.002	0.002	-0.000	-0.000	-0.000	0.000	0.000	0.001
566.00	-0.000	0.001	0.003	0.001	0.000	0.000	0.000	-0.001	0.002	0.002	-0.000	-0.000	-0.000	0.000	0.000	0.001
567.00	-0.000	0.001	0.003	0.001	0.000	-0.000	0.000	-0.000	0.002	0.002	-0.000	-0.000	-0.000	0.000	0.000	0.001
568.00	-0.000	0.001	0.003	0.002	0.000	0.000	0.000	-0.000	0.002	0.003	-0.000	-0.000	-0.000	0.000	0.000	0.001
569.00	-0.000	0.001	0.003	0.001	0.001	0.000	0.000	-0.001	0.002	0.002	-0.000	-0.000	-0.000	0.000	0.000	0.001
570.00	-0.000	0.001	0.003	0.001	0.001	0.000	0.000	-0.000	0.002	0.002	-0.000	-0.000	-0.000	0.000	0.000	0.001
571.00	-0.000	0.001	0.003	0.002	0.000	0.000	0.000	-0.000	0.002	0.002	-0.000	-0.000	-0.000	0.000	0.000	0.001
572.00	-0.000	0.001	0.003	0.002	0.001	0.000	0.000	-0.000	0.002	0.002	-0.000	-0.000	-0.000	0.000	0.000	0.001
573.00	-0.000	0.001	0.003	0.001	0.000	0.000	0.000	-0.000	0.002	0.002	-0.000	-0.000	-0.000	0.000	0.000	0.001
574.00	-0.000	0.001	0.003	0.001	0.000	-0.000	0.000	-0.001	0.002	0.002	-0.000	-0.000	-0.000	0.000	0.000	0.001
575.00	-0.000	0.001	0.003	0.001	0.001	0.000	0.000	-0.000	0.002	0.002	-0.000	-0.000	-0.000	0.000	0.000	0.001
576.00	-0.000	0.001	0.004	0.002	0.001	0.000	0.000	-0.000	0.002	0.002	-0.000	-0.000	-0.000	0.000	0.000	0.001
577.00	-0.000	0.001	0.003	0.002	0.001	0.000	0.000	-0.000	0.002	0.002	-0.000	-0.000	-0.000	0.000	0.000	0.001
578.00	-0.000	0.001	0.003	0.001	0.001	0.000	0.000	-0.001	0.002	0.002	-0.000	-0.000	-0.000	0.000	0.000	0.001
579.00	-0.000	0.001	0.003	0.001	0.001	0.000	0.000	-0.000	0.002	0.002	-0.000	-0.000	-0.000	0.000	0.000	0.001
580.00	-0.000	0.001	0.003	0.001	0.001	0.000	0.000	-0.000	0.002	0.002	-0.000	-0.000	-0.000	0.000	0.000	0.001
581.00	-0.000	0.001	0.003	0.001	0.000	0.000	0.000	-0.001	0.002	0.002	-0.000	-0.000	-0.000	0.000	0.000	0.001
582.00	-0.000	0.001	0.003	0.001	0.001	0.000	0.000	-0.000	0.002	0.002	-0.000	-0.000	-0.000	0.000	0.000	0.001
583.00	-0.000	0.001	0.003	0.001	0.001	0.000	0.000	-0.000	0.002	0.002	-0.000	-0.000	-0.000	0.000	0.000	0.001
584.00	-0.000	0.001	0.003	0.002	0.001	0.000	0.000	-0.000	0.002	0.002	-0.000	-0.000	-0.000	0.000	0.000	0.001
585.00	-0.000	0.001	0.003	0.001	0.001	0.000	0.000	-0.000	0.002	0.002	-0.000	-0.000	-0.000	0.000	0.000	0.001
586.00	-0.000	0.001	0.003	0.001	0.000	-0.000	0.000	-0.001	0.002	0.002	-0.000	-0.000	-0.000	0.000	0.000	0.000
587.00	-0.000	0.001	0.003	0.002	0.001	0.000	0.000	-0.000	0.002	0.002	-0.000	-0.000	-0.000	0.000	0.000	0.001
588.00	-0.000	0.001	0.003	0.001	0.000	0.000	0.000	-0.000	0.002	0.002	-0.000	-0.000	-0.000	0.000	0.000	0.001
589.00	-0.000	0.001	0.003	0.001	0.000	0.000	0.000	-0.001	0.002	0.002	-0.000	-0.000	-0.000	0.000	0.000	0.001
590.00	-0.000	0.001	0.003	0.001	0.000	-0.000	0.000	-0.001	0.002	0.002	-0.000	-0.000	-0.000	-0.000	0.000	0.000
591.00	-0.000	0.001	0.003	0.001	0.000	-0.000	0.000	-0.001	0.002	0.002	-0.000	-0.000	-0.000	0.000	-0.000	0.000
592.00	-0.000	0.001	0.003	0.001	0.000	0.000	0.000	-0.001	0.002	0.002	-0.000	-0.000	-0.000	0.000	0.000	0.001
593.00	-0.000	0.001	0.003	0.002	0.000	-0.000	0.000	-0.001	0.002	0.002	-0.000	-0.000	-0.000	0.000	0.000	0.001
594.00	-0.000	0.001	0.003	0.002	0.000	-0.000	-0.000	-0.001	0.002	0.002	-0.000	-0.000	-0.000	0.000	0.000	0.000
595.00	-0.000	0.001	0.003	0.001	0.000	-0.000	-0.000	-0.001	0.002	0.002	-0.000	-0.000	-0.000	-0.000	-0.000	0.000
596.00	-0.000	0.001	0.003	0.001	0.000	-0.000	0.000	-0.001	0.002	0.002	-0.000	-0.000	-0.000	0.000	0.000	0.000
597.00	-0.000	0.001	0.003	0.001	0.000	-0.000	-0.000	-0.001	0.002	0.002	-0.000	-0.000	-0.000	0.000	-0.000	0.000
598.00	-0.000	0.001	0.003	0.001	0.000	-0.000	-0.000	-0.001	0.002	0.002	-0.000	-0.000	-0.000	0.000	-0.000	0.000
599.00	-0.000	0.001	0.003	0.001	0.000	-0.000	-0.000	-0.001	0.002	0.002	-0.000	-0.000	-0.000	0.000	-0.000	0.000
600.00	-0.000	0.001	0.003	0.001	0.000	-0.000	-0.000	-0.001	0.002	0.002	-0.000	-0.000	-0.000	0.000	-0.000	0.000
601.00	-0.000	0.001	0.003	0.001	0.000	-0.000	0.000	-0.001	0.002	0.002	-0.000	-0.000	-0.000	0.000	-0.000	0.000
602.00	-0.000	0.001	0.003	0.002	0.000	-0.000	-0.000	-0.001	0.002	0.002	-0.000	-0.000	-0.000	0.000	-0.000	0.000
603.00	-0.000	0.001	0.003	0.001	0.000	-0.000	-0.000	-0.001	0.002	0.002	-0.000	-0.000	-0.001	-0.000	-0.000	0.000
604.00	-0.000	0.001	0.003	0.001	0.000	-0.000	-0.000	-0.001	0.002	0.002	-0.000	-0.000	-0.000	-0.000	-0.000	0.000
605.00	-0.000	0.001	0.003	0.001	0.000	-0.000	-0.000	-0.001	0.002	0.002	-0.000	-0.000	-0.000	0.000	-0.000	0.000
606.00	-0.000	0.001	0.003	0.001	0.000	-0.000	-0.000	-0.001	0.002	0.002	-0.000	-0.000	-0.000	0.000	-0.000	0.000
607.00	-0.000	0.001	0.003	0.001	0.000	-0.000	-0.000	-0.001	0.002	0.002	-0.000	-0.000	-0.000	0.000	-0.000	0.000
608.00	-0.000	0.000	0.003	0.001	0.000	-0.000	-0.000	-0.001	0.002	0.002	-0.000	-0.000	-0.000	-0.000	-0.000	0.000
609.00	-0.000	0.000	0.003	0.001	0.000	-0.000	-0.000	-0.001	0.002	0.002	-0.000	-0.000	-0.001	-0.000	-0.000	0.000
610.00	-0.000	0.001	0.003	0.001	0.000	-0.000	-0.000	-0.001	0.002	0.002	-0.000	-0.000	-0.000	0.000	-0.000	0.000
611.00	-0.000	0.001	0.003	0.001	0.000	-0.000	-0.000	-0.001	0.002	0.002	-0.000	-0.000	-0.000	0.000	-0.000	0.000
612.00	-0.000	0.001	0.003	0.002	0.000	-0.000	-0.000	-0.001	0.002	0.002	-0.000	-0.000	-0.000	0.000	0.000	0.000
613.00	-0.000	0.001	0.003	0.001	0.000	-0.000	-0.000	-0.001	0.002	0.002	-0.000	-0.000	-0.000	-0.000	-0.000	0.000
614.00	-0.000	0.001	0.003	0.001	0.000	-0.000	-0.000	-0.001	0.002	0.002	-0.000	-0.000	-0.000	-0.000	-0.000	0.000
615.00	-0.000	0.000	0.003	0.001	0.000	-0.000	-0.000	-0.001	0.002	0.002	-0.000	-0.000	-0.000	-0.000	-0.000	0.000
616.00	-0.000	0.000	0.003	0.001	0.000	-0.000	-0.000	-0.001	0.002	0.002	-0.000	-0.000	-0.000	-0.000	-0.000	0.000
617.00	-0.000	0.000	0.003	0.001	0.000	-0.000	-0.000	-0.001	0.002	0.002	-0.000	-0.000	-0.000	-0.000	-0.000	0.000
618.00	-0.000	0.000	0.003	0.001	0.000	-0.000	-0.000	-0.001	0.002	0.002	-0.000	-0.000	-0.000	0.000	-0.000	0.000
619.00	-0.000	0.000	0.003	0.001	0.000	-0.000	-0.000	-0.001	0.001	0.002	-0.000	-0.000	-0.000	-0.000	-0.000	0.000
620.00	-0.000	0.000	0.003	0.001	0.000	-0.000	-0.000	-0.001	0.002	0.002	-0.000	-0.000	-0.000	0.000	-0.000	0.000
621.00	-0.000	0.000	0.003	0.002	0.000	-0.000	-0.000	-0.001	0.002	0.002	-0.000	-0.000	-0.000	0.000	-0.000	0.000
622.00	-0.000	0.000	0.003	0.002	0.000	-0.000	-0.000	-0.001	0.002	0.002	-0.000	-0.000	-0.000	-0.000	-0.000	0.000
623.00	-0.000	0.000	0.003	0.001	0.000	-0.000	-0.000	-0.001	0.002	0.002	-0.000	-0.000	-0.000	0.000	-0.000	0.000
624.00	-0.000	0.000	0.003	0.002	0.000	-0.000	-0.000	-0.001	0.002	0.002	-0.000	-0.000	-0.000	0.000	-0.000	0.000
625.00	-0.000	0.000	0.003	0.001	0.000	-0.000	-0.000	-0.001	0.002	0.002	-0.000	-0.000	-0.000	-0.000	-0.000	0.000
626.00	-0.000	0.000	0.003	0.001	0.000	-0.000	-0.000	-0.001	0.002	0.002	-0.000	-0.000	-0.000	-0.000	-0.000	0.000
627.00	-0.000	0.000	0.003	0.001	0.000	-0.000	-0.000	-0.001	0.002	0.002	-0.000	-0.000	-0.000	-0.000	-0.000	0.000
628.00	-0.000	0.000	0.003	0.001	0.000	-0.000	-0.000	-0.001	0.002	0.002	-0.000	-0.000	-0.000	-0.000	-0.000	0.000
629.00	-0.000	0.000	0.003	0.001	0.000	-0.000	-0.000	-0.001	0.002	0.002	-0.000	-0.000	-0.000	-0.000	-0.000	0.000
630.00	-0.000	0.000	0.003	0.001	0.000	-0.000	-0.000	-0.001	0.002	0.002	-0.000	-0.000	-0.000	-0.000	-0.000	0.000
631.00	-0.000	0.000	0.003	0.001	0.000	-0.000	-0.000	-0.001	0.001	0.002	-0.000	-0.000	-0.000	-0.000	-0.000	0.000
632.00	-0.000	0.000	0.003	0.001	0.000	-0.000	-0.000	-0.001	0.001	0.002	-0.000	-0.000	-0.000	-0.000	-0.000	0.000
633.00	-0.000	0.000	0.003	0.001	0.000	-0.000	-0.000	-0.001	0.001	0.002	-0.000	-0.000	-0.000	-0.000	-0.000	0.000
634.00	-0.000	0.000	0.003	0.001	0.000	-0.000	-0.000	-0.001	0.001	0.002	-0.000	-0.000	-0.000	-0.000	-0.000	0.000
635.00	-0.000	0.000	0.003	0.001	0.000	-0.000	-0.000	-0.001	0.002	0.002	-0.000	-0.000	-0.000	0.000	-0.000	0.000
636.00	-0.000	0.000	0.003	0.001	0.000	-0.000	-0.000	-0.001	0.001	0.002	-0.000	-0.000	-0.000	-0.000	-0.000	0.000
637.00	-0.000	0.000	0.003	0.001	0.000	-0.000	-0.000	-0.001	0.001	0.002	-0.000	-0.000	-0.001	-0.000	-0.000	0.000
638.00	-0.000	0.000	0.003	0.001	0.000	-0.000	-0.000	-0.001	0.001	0.002	-0.000	-0.000	-0.000	-0.000	-0.000	0.000
639.00	-0.000	0.000	0.003	0.001	0.000	-0.000	-0.000	-0.001	0.001	0.002	-0.000	-0.000	-0.000	-0.000	-0.000	0.000
640.00	-0.000	0.000	0.003	0.001	0.000	-0.000	-0.000	-0.001	0.001	0.002	-0.000	-0.000	-0.000	-0.000	-0.000	0.000
641.00	-0.000	0.000	0.003	0.001	0.000	-0.000	-0.000	-0.001	0.001	0.002	-0.000	-0.001	-0.000	-0.000	-0.000	0.000
642.00	-0.000	0.000	0.003	0.001	0.000	-0.000	-0.000	-0.001	0.001	0.002	-0.000	-0.000	-0.000	-0.000	-0.000	0.000
643.00	-0.000	0.000	0.003	0.001	0.000	-0.000	-0.000	-0.001	0.001	0.002	-0.000	-0.001	-0.000	-0.000	-0.000	0.000
644.00	-0.000	0.000	0.003	0.001	0.000	-0.000	-0.000	-0.001	0.001	0.002	-0.000	-0.000	-0.000	0.000	-0.000	0.000
645.00	-0.000	0.000	0.003	0.001	0.000	-0.000	-0.000	-0.001	0.001	0.002	-0.000	-0.001	-0.000	-0.000	-0.000	0.000
646.00	-0.000	0.000	0.003	0.001	0.000	-0.000	-0.000	-0.001	0.001	0.002	-0.000	-0.001	-0.000	-0.000	-0.000	0.000
647.00	-0.000	0.000	0.003	0.001	0.000	-0.000	-0.000	-0.001	0.001	0.002	-0.000	-0.000	-0.000	-0.000	-0.000	0.000
648.00	-0.000	0.000	0.003	0.001	0.000	-0.000	-0.000	-0.001	0.001	0.002	-0.000	-0.001	-0.000	-0.000	-0.000	0.000
649.00	-0.000	0.000	0.003	0.001	0.000	-0.000	-0.000	-0.001	0.002	0.002	-0.000	-0.000	-0.000	-0.000	-0.000	0.000
650.00	-0.000	0.000	0.003	0.001	0.000	-0.000	-0.000	-0.001	0.001	0.002	-0.000	-0.000	-0.000	-0.000	-0.000	0.000
651.00	-0.000	0.000	0.003	0.001	0.000	-0.000	-0.000	-0.001	0.001	0.002	-0.000	-0.000	-0.000	-0.000	-0.000	0.000
652.00	-0.000	0.000	0.003	0.001	0.000	-0.000	-0.000	-0.001	0.001	0.002	-0.000	-0.000	-0.000	-0.000	-0.000	0.000
653.00	-0.000	0.000	0.003	0.001	0.000	-0.000	-0.000	-0.001	0.001	0.002	-0.000	-0.000	-0.000	-0.000	-0.000	0.000
654.00	-0.000	0.000	0.003	0.001	0.000	-0.000	-0.000	-0.001	0.001	0.002	-0.000	-0.000	-0.000	-0.000	-0.000	0.000
655.00	-0.000	0.000	0.003	0.001	0.000	-0.000	-0.000	-0.001	0.001	0.002	-0.000	-0.000	-0.000	-0.000	-0.000	0.000
656.00	-0.000	0.000	0.003	0.001	0.000	-0.000	-0.000	-0.001	0.002	0.002	-0.000	-0.000	-0.000	-0.000	-0.000	0.000
657.00	-0.000	0.000	0.003	0.001	0.000	-0.000	-0.000	-0.001	0.001	0.002	-0.000	-0.000	-0.000	-0.000	-0.000	0.000
658.00	-0.000	0.000	0.003	0.001	0.000	-0.000	-0.000	-0.001	0.001	0.002	-0.000	-0.000	-0.000	-0.000	-0.000	0.000
659.00	-0.000	0.000	0.003	0.001	0.000	-0.000	-0.000	-0.001	0.001	0.002	-0.000	-0.000	-0.000	-0.000	-0.000	0.000
660.00	-0.000	0.000	0.003	0.001	0.000	-0.000	-0.000	-0.001	0.001	0.002	-0.000	-0.000	-0.000	-0.000	-0.000	0.000
661.00	-0.000	0.001	0.003	0.001	0.000	-0.000	-0.000	-0.001	0.002	0.002	-0.000	-0.000	-0.000	-0.000	-0.000	0.000
662.00	-0.000	0.000	0.003	0.001	0.000	-0.000	-0.000	-0.001	0.002	0.002	-0.000	-0.000	-0.000	-0.000	-0.000	0.000
663.00	-0.000	0.000	0.003	0.001	0.000	-0.000	-0.000	-0.001	0.001	0.002	-0.000	-0.000	-0.000	-0.000	-0.000	0.000
664.00	-0.000	0.000	0.003	0.001	0.000	-0.000	-0.000	-0.001	0.001	0.002	-0.000	-0.000	-0.000	-0.000	-0.000	0.000
665.00	-0.000	0.001	0.003	0.001	0.000	-0.000	-0.000	-0.001	0.002	0.002	-0.000	-0.000	-0.000	-0.000	-0.000	0.000
666.00	-0.000	0.000	0.003	0.001	0.000	-0.000	-0.000	-0.001	0.001	0.002	-0.000	-0.001	-0.000	-0.000	-0.000	0.000
667.00	-0.000	0.000	0.003	0.001	0.000	-0.000	-0.000	-0.001	0.001	0.002	-0.000	-0.000	-0.000	-0.000	-0.000	0.000
668.00	-0.000	0.000	0.003	0.001	0.000	-0.000	-0.000	-0.001	0.001	0.002	-0.000	-0.000	-0.000	-0.000	-0.000	0.000
669.00	-0.000	0.000	0.003	0.001	0.000	-0.000	-0.000	-0.001	0.002	0.002	-0.000	-0.000	-0.000	-0.000	-0.000	0.000
670.00	-0.000	0.001	0.003	0.001	0.000	-0.000	-0.000	-0.001	0.002	0.002	-0.000	-0.000	-0.000	0.000	-0.000	0.000
671.00	-0.000	0.000	0.003	0.001	0.000	-0.000	-0.000	-0.001	0.001	0.002	-0.000	-0.000	-0.000	0.000	-0.000	0.000
672.00	-0.000	0.000	0.003	0.001	0.000	-0.000	-0.000	-0.001	0.002	0.002	-0.000	-0.000	-0.000	-0.000	-0.000	0.000
673.00	-0.000	0.001	0.003	0.001	0.000	-0.000	-0.000	-0.001	0.002	0.002	-0.000	-0.000	-0.000	-0.000	-0.000	0.000
674.00	-0.000	0.000	0.003	0.001	0.000	-0.000	-0.000	-0.001	0.001	0.002	-0.000	-0.000	-0.000	-0.000	-0.000	0.000
675.00	-0.000	0.000	0.003	0.001	0.000	-0.000	-0.000	-0.001	0.001	0.002	-0.000	-0.001	-0.000	-0.000	-0.000	0.000
676.00	-0.000	0.000	0.003	0.001	0.000	-0.000	-0.000	-0.001	0.001	0.002	-0.000	-0.001	-0.000	-0.000	-0.000	0.000
677.00	-0.000	0.000	0.003	0.001	0.000	-0.000	-0.000	-0.001	0.001	0.002	-0.000	-0.001	-0.000	-0.000	-0.000	0.000
678.00	-0.000	0.000	0.003	0.001	0.000	-0.000	-0.000	-0.001	0.001	0.002	-0.000	-0.001	-0.000	-0.000	-0.000	0.000
679.00	-0.000	0.000	0.003	0.001	0.000	-0.000	-0.000	-0.001	0.001	0.002	-0.000	-0.001	-0.000	-0.000	-0.000	0.000
680.00	-0.000	0.000	0.003	0.001	0.000	-0.000	-0.000	-0.001	0.001	0.002	-0.000	-0.000	-0.000	-0.000	-0.000	0.000
681.00	-0.000	0.000	0.003	0.001	0.000	-0.000	-0.000	-0.001	0.001	0.002	-0.000	-0.001	-0.000	-0.000	-0.000	0.000
682.00	-0.000	0.000	0.003	0.001	0.000	-0.000	-0.000	-0.001	0.001	0.002	-0.000	-0.000	-0.000	-0.000	-0.000	0.000
683.00	-0.000	0.000	0.003	0.001	0.000	-0.000	-0.000	-0.001	0.001	0.002	-0.000	-0.000	-0.000	-0.000	-0.000	0.000
684.00	-0.000	0.000	0.003	0.001	0.000	-0.000	-0.000	-0.001	0.001	0.002	-0.000	-0.000	-0.000	-0.000	-0.000	0.000
685.00	-0.000	0.000	0.003	0.001	0.000	-0.000	-0.000	-0.001	0.001	0.002	-0.000	-0.000	-0.000	-0.000	-0.000	0.000
686.00	-0.000	0.000	0.003	0.001	0.000	-0.000	-0.000	-0.001	0.001	0.002	-0.000	-0.000	-0.000	-0.000	-0.000	0.000
687.00	-0.000	0.000	0.003	0.001	0.000	-0.000	-0.000	-0.001	0.001	0.002	-0.001	-0.001	-0.000	-0.000	-0.000	0.000
688.00	-0.000	0.000	0.003	0.001	0.000	-0.000	-0.000	-0.001	0.001	0.002	-0.001	-0.001	-0.000	-0.000	-0.000	0.000
689.00	-0.000	0.000	0.003	0.001	0.000	-0.000	-0.000	-0.001	0.001	0.002	-0.001	-0.000	-0.000	-0.000	-0.000	0.000
690.00	-0.000	0.000	0.003	0.001	0.000	-0.000	-0.000	-0.001	0.001	0.002	-0.000	-0.000	-0.000	-0.000	-0.000	0.000
691.00	-0.000	0.000	0.003	0.001	0.000	-0.000	-0.000	-0.001	0.001	0.002	-0.000	-0.001	-0.000	-0.000	-0.000	0.000
692.00	-0.000	0.000	0.003	0.001	0.000	-0.000	-0.000	-0.001	0.001	0.002	-0.000	-0.000	-0.000	-0.000	-0.000	0.000
693.00	-0.000	0.000	0.003	0.001	0.000	-0.000	-0.000	-0.001	0.001	0.002	-0.000	-0.000	-0.000	-0.000	-0.000	0.000
694.00	-0.000	0.000	0.003	0.001	0.000	-0.000	-0.000	-0.001	0.001	0.002	-0.000	-0.000	-0.000	-0.000	-0.000	0.000
695.00	-0.000	0.000	0.003	0.001	0.000	-0.000	-0.000	-0.001	0.001	0.002	-0.000	-0.000	-0.000	-0.000	-0.000	0.000
696.00	-0.000	0.000	0.003	0.001	-0.000	-0.000	-0.000	-0.001	0.001	0.002	-0.000	-0.001	-0.000	-0.000	-0.000	-0.000
697.00	-0.000	0.000	0.003	0.001	0.000	-0.000	-0.000	-0.001	0.001	0.002	-0.001	-0.001	-0.000	-0.000	-0.000	-0.000
698.00	-0.000	0.000	0.003	0.001	0.000	-0.000	-0.000	-0.001	0.001	0.002	-0.000	-0.001	-0.000	-0.000	-0.000	-0.000
699.00	-0.000	0.000	0.003	0.001	0.000	-0.000	-0.000	-0.001	0.001	0.002	-0.000	-0.001	-0.000	-0.000	-0.000	-0.000
700.00	-0.000	0.000	0.003	0.001	0.000	-0.000	-0.000	-0.001	0.001	0.002	-0.000	-0.000	-0.000	-0.000	-0.000	0.000
701.00	-0.000	0.000	0.003	0.001	0.000	-0.000	-0.000	-0.001	0.001	0.002	-0.000	-0.000	-0.000	-0.000	-0.000	0.000
702.00	-0.000	0.000	0.003	0.001	0.000	-0.000	-0.000	-0.001	0.001	0.002	-0.000	-0.001	-0.000	-0.000	-0.000	0.000
703.00	-0.000	0.000	0.003	0.001	-0.000	-0.000	-0.001	-0.001	0.001	0.002	-0.001	-0.001	-0.000	-0.000	-0.000	-0.000
704.00	-0.000	0.000	0.003	0.001	0.000	-0.000	-0.000	-0.001	0.001	0.002	-0.001	-0.001	-0.000	-0.000	-0.000	-0.000
705.00	-0.000	0.000	0.003	0.001	-0.000	-0.000	-0.000	-0.001	0.001	0.002	-0.001	-0.001	-0.000	-0.000	-0.000	-0.000
706.00	-0.000	0.000	0.003	0.001	-0.000	-0.000	-0.000	-0.001	0.001	0.002	-0.001	-0.001	-0.000	-0.000	-0.000	-0.000
707.00	-0.000	0.000	0.003	0.001	0.000	-0.000	-0.000	-0.001	0.001	0.002	-0.000	-0.000	-0.000	-0.000	-0.000	-0.000
708.00	-0.000	0.000	0.003	0.001	-0.000	-0.000	-0.000	-0.001	0.001	0.002	-0.001	-0.000	-0.000	-0.000	-0.000	-0.000
709.00	-0.000	0.000	0.003	0.001	0.000	-0.000	-0.000	-0.001	0.001	0.002	-0.000	-0.000	-0.000	-0.000	-0.000	-0.000
710.00	-0.000	0.000	0.003	0.001	-0.000	-0.000	-0.000	-0.001	0.001	0.002	-0.001	-0.001	-0.000	-0.000	-0.000	-0.000
711.00	-0.000	0.000	0.003	0.001	-0.000	-0.000	-0.001	-0.001	0.001	0.001	-0.001	-0.001	-0.000	-0.000	-0.000	-0.000
712.00	-0.000	0.000	0.003	0.001	-0.000	-0.000	-0.001	-0.001	0.001	0.002	-0.001	-0.001	-0.000	-0.000	-0.000	-0.000
713.00	-0.000	0.000	0.003	0.001	-0.000	-0.000	-0.001	-0.001	0.001	0.002	-0.001	-0.001	-0.000	-0.000	-0.000	-0.000
714.00	-0.000	0.000	0.003	0.001	-0.000	-0.000	-0.000	-0.001	0.001	0.002	-0.000	-0.001	-0.000	-0.000	-0.000	-0.000
715.00	-0.000	0.000	0.003	0.001	-0.000	-0.000	-0.000	-0.001	0.001	0.001	-0.001	-0.001	-0.000	-0.000	-0.000	-0.000
716.00	-0.000	0.000	0.003	0.001	-0.000	-0.001	-0.000	-0.001	0.001	0.002	-0.001	-0.001	-0.000	-0.000	-0.000	-0.000
717.00	-0.000	0.000	0.003	0.001	-0.000	-0.001	-0.000	-0.001	0.001	0.002	-0.001	-0.001	-0.000	-0.000	-0.000	-0.000
718.00	-0.000	0.000	0.003	0.001	-0.000	-0.000	-0.001	-0.001	0.001	0.001	-0.001	-0.001	-0.000	-0.000	-0.000	-0.000
719.00	-0.000	0.000	0.003	0.001	-0.000	-0.000	-0.001	-0.001	0.001	0.001	-0.001	-0.001	-0.000	-0.000	-0.000	-0.000
720.00	-0.000	0.000	0.003	0.001	-0.000	-0.000	-0.001	-0.001	0.001	0.001	-0.001	-0.001	-0.000	-0.000	-0.001	-0.000
721.00	-0.000	0.000	0.003	0.001	-0.000	-0.001	-0.001	-0.001	0.001	0.001	-0.001	-0.001	-0.000	-0.000	-0.001	-0.000
722.00	-0.000	0.000	0.003	0.001	-0.000	-0.000	-0.001	-0.001	0.001	0.001	-0.001	-0.001	-0.000	-0.000	-0.001	-0.000
723.00	-0.000	0.000	0.003	0.001	-0.000	-0.001	-0.001	-0.001	0.001	0.001	-0.001	-0.001	-0.000	-0.000	-0.001	-0.000
724.00	-0.000	0.000	0.003	0.001	-0.000	-0.001	-0.001	-0.001	0.001	0.001	-0.001	-0.001	-0.000	-0.000	-0.001	-0.000
725.00	-0.000	0.000	0.003	0.001	-0.000	-0.001	-0.001	-0.001	0.001	0.001	-0.001	-0.001	-0.001	-0.000	-0.001	-0.000
726.00	-0.000	0.000	0.003	0.001	-0.000	-0.001	-0.001	-0.001	0.001	0.001	-0.001	-0.001	-0.000	-0.000	-0.001	-0.000
727.00	-0.000	0.000	0.003	0.001	-0.000	-0.000	-0.001	-0.001	0.001	0.001	-0.001	-0.001	-0.000	-0.000	-0.001	-0.000
728.00	-0.000	0.000	0.003	0.001	-0.000	-0.000	-0.001	-0.001	0.001	0.001	-0.001	-0.001	-0.000	-0.000	-0.001	-0.000
729.00	-0.000	0.000	0.003	0.001	-0.000	-0.000	-0.001	-0.001	0.001	0.001	-0.001	-0.001	-0.000	-0.000	-0.001	-0.000
730.00	-0.000	0.000	0.003	0.001	-0.000	-0.000	-0.001	-0.001	0.001	0.001	-0.001	-0.001	-0.001	-0.000	-0.001	-0.000
731.00	-0.000	0.000	0.003	0.001	-0.000	-0.000	-0.001	-0.001	0.001	0.001	-0.001	-0.001	-0.000	-0.000	-0.001	-0.000
732.00	-0.000	0.000	0.003	0.001	-0.000	-0.000	-0.001	-0.001	0.001	0.001	-0.001	-0.001	-0.000	-0.000	-0.001	-0.000
733.00	-0.000	0.000	0.003	0.001	-0.000	-0.000	-0.001	-0.001	0.001	0.001	-0.001	-0.001	-0.000	-0.000	-0.001	-0.000
734.00	-0.000	0.000	0.003	0.001	-0.000	-0.001	-0.001	-0.001	0.001	0.001	-0.001	-0.001	-0.000	-0.000	-0.001	-0.000
735.00	-0.000	0.000	0.003	0.001	-0.000	-0.001	-0.001	-0.001	0.001	0.001	-0.001	-0.001	-0.000	-0.000	-0.001	-0.000
736.00	-0.000	0.000	0.003	0.001	-0.000	-0.001	-0.001	-0.001	0.001	0.001	-0.001	-0.001	-0.001	-0.000	-0.001	-0.000
737.00	-0.000	0.000	0.003	0.001	-0.000	-0.001	-0.001	-0.001	0.001	0.001	-0.001	-0.001	-0.001	-0.000	-0.001	-0.000
738.00	-0.000	0.000	0.003	0.001	-0.000	-0.001	-0.001	-0.001	0.001	0.001	-0.001	-0.001	-0.001	-0.000	-0.001	-0.000
739.00	-0.000	0.000	0.003	0.001	-0.000	-0.001	-0.001	-0.001	0.001	0.001	-0.001	-0.001	-0.001	-0.000	-0.001	-0.000
740.00	-0.000	0.000	0.003	0.001	-0.000	-0.001	-0.001	-0.001	0.001	0.001	-0.001	-0.001	-0.001	-0.001	-0.001	-0.000
741.00	-0.000	0.000	0.003	0.001	-0.000	-0.000	-0.001	-0.001	0.001	0.001	-0.001	-0.001	-0.000	-0.000	-0.001	-0.000
742.00	-0.000	0.000	0.003	0.001	-0.000	-0.001	-0.001	-0.001	0.001	0.001	-0.001	-0.001	-0.001	-0.000	-0.001	-0.000
743.00	-0.000	0.000	0.003	0.001	-0.000	-0.001	-0.001	-0.001	0.001	0.001	-0.001	-0.001	-0.001	-0.000	-0.001	-0.000
744.00	-0.000	0.000	0.003	0.001	-0.000	-0.001	-0.001	-0.001	0.001	0.001	-0.001	-0.001	-0.001	-0.001	-0.001	-0.000
745.00	-0.000	0.000	0.003	0.001	-0.000	-0.001	-0.001	-0.001	0.001	0.001	-0.001	-0.001	-0.001	-0.001	-0.001	-0.000
746.00	-0.000	0.000	0.003	0.001	-0.000	-0.000	-0.001	-0.001	0.001	0.001	-0.001	-0.001	-0.001	-0.001	-0.001	-0.000
747.00	-0.000	0.000	0.003	0.001	-0.000	-0.000	-0.001	-0.001	0.001	0.001	-0.001	-0.001	-0.001	-0.000	-0.001	-0.000
748.00	-0.000	0.000	0.003	0.001	-0.000	-0.000	-0.001	-0.001	0.001	0.001	-0.001	-0.001	-0.000	-0.001	-0.001	-0.000
749.00	-0.000	0.000	0.003	0.001	-0.000	-0.000	-0.001	-0.001	0.001	0.001	-0.001	-0.001	-0.001	-0.000	-0.001	-0.000
750.00	-0.000	0.000	0.003	0.001	-0.000	-0.001	-0.001	-0.001	0.001	0.001	-0.001	-0.001	-0.001	-0.000	-0.001	-0.000
751.00	-0.000	0.000	0.003	0.001	-0.000	-0.000	-0.001	-0.001	0.001	0.001	-0.001	-0.001	-0.001	-0.000	-0.001	-0.000
752.00	-0.000	0.000	0.003	0.001	-0.000	-0.000	-0.001	-0.001	0.001	0.001	-0.001	-0.001	-0.000	-0.000	-0.001	-0.000
753.00	-0.000	0.000	0.003	0.001	-0.000	-0.000	-0.001	-0.001	0.001	0.001	-0.001	-0.001	-0.000	-0.000	-0.001	-0.000
754.00	-0.000	0.000	0.003	0.001	-0.000	-0.000	-0.001	-0.001	0.001	0.001	-0.001	-0.001	-0.000	-0.000	-0.001	-0.000
755.00	-0.000	0.000	0.003	0.001	-0.000	-0.000	-0.001	-0.001	0.001	0.001	-0.001	-0.001	-0.000	-0.000	-0.001	-0.000
756.00	-0.000	0.000	0.003	0.001	-0.000	-0.000	-0.001	-0.001	0.001	0.001	-0.001	-0.001	-0.001	-0.000	-0.001	-0.000
757.00	-0.000	0.000	0.003	0.001	-0.000	-0.000	-0.001	-0.001	0.001	0.001	-0.001	-0.001	-0.001	-0.000	-0.001	-0.000
758.00	-0.000	0.000	0.003	0.001	-0.000	-0.000	-0.001	-0.001	0.001	0.001	-0.001	-0.001	-0.000	-0.000	-0.001	-0.000
759.00	-0.000	0.000	0.003	0.001	0.000	-0.000	-0.000	-0.001	0.001	0.002	-0.001	-0.001	-0.000	-0.000	-0.000	-0.000
760.00	0.001	0.001	0.004	0.002	0.001	0.001	0.001	0.000	0.002	0.003	0.001	0.001	0.001	0.001	0.001	0.001
761.00	0.000	0.000	0.003	0.001	0.000	-0.000	-0.000	-0.001	0.001	0.002	-0.000	-0.000	-0.000	-0.000	-0.000	0.000
762.00	-0.000	0.000	0.003	0.001	-0.000	-0.000	-0.000	-0.001	0.001	0.002	-0.001	-0.001	-0.000	-0.000	-0.001	-0.000
763.00	-0.000	0.000	0.003	0.001	-0.000	-0.000	-0.001	-0.001	0.001	0.002	-0.001	-0.001	-0.000	-0.000	-0.001	-0.000
764.00	-0.000	0.000	0.003	0.001	-0.000	-0.000	-0.000	-0.001	0.001	0.002	-0.001	-0.001	-0.000	-0.000	-0.001	-0.000
765.00	-0.000	0.000	0.003	0.001	-0.000	-0.000	-0.000	-0.001	0.001	0.002	-0.001	-0.001	-0.000	-0.000	-0.001	-0.000
766.00	-0.000	0.000	0.003	0.001	-0.000	-0.000	-0.001	-0.001	0.001	0.002	-0.001	-0.001	-0.000	-0.000	-0.001	-0.000
767.00	-0.000	0.000	0.003	0.001	-0.000	-0.000	-0.001	-0.001	0.001	0.002	-0.001	-0.001	-0.000	-0.000	-0.001	-0.000
768.00	-0.000	0.000	0.003	0.001	-0.000	-0.000	-0.001	-0.001	0.001	0.002	-0.001	-0.001	-0.000	-0.000	-0.001	-0.000
769.00	-0.000	0.000	0.003	0.001	-0.000	-0.000	-0.001	-0.001	0.001	0.002	-0.001	-0.001	-0.000	-0.000	-0.001	-0.000
770.00	-0.000	0.000	0.003	0.001	-0.000	-0.000	-0.000	-0.001	0.001	0.001	-0.001	-0.001	-0.000	-0.000	-0.001	-0.000
771.00	-0.000	0.000	0.003	0.001	-0.000	-0.000	-0.001	-0.001	0.001	0.002	-0.001	-0.001	-0.000	-0.000	-0.001	-0.000
772.00	-0.000	0.000	0.003	0.001	-0.000	-0.000	-0.001	-0.001	0.001	0.002	-0.001	-0.001	-0.000	-0.000	-0.001	-0.000
773.00	-0.000	0.000	0.003	0.001	-0.000	-0.000	-0.000	-0.001	0.001	0.002	-0.001	-0.001	-0.000	-0.000	-0.000	-0.000
774.00	-0.000	0.000	0.003	0.001	-0.000	-0.000	-0.000	-0.001	0.001	0.002	-0.001	-0.001	-0.000	-0.000	-0.000	-0.000
775.00	-0.000	0.000	0.003	0.001	-0.000	-0.000	-0.000	-0.001	0.001	0.002	-0.001	-0.001	-0.000	-0.000	-0.000	-0.000
776.00	-0.000	0.000	0.003	0.001	-0.000	-0.000	-0.001	-0.001	0.001	0.001	-0.001	-0.001	-0.000	-0.000	-0.001	-0.000
777.00	-0.000	0.000	0.003	0.001	-0.000	-0.000	-0.001	-0.001	0.001	0.001	-0.001	-0.001	-0.000	-0.000	-0.001	-0.000
778.00	-0.000	0.000	0.003	0.001	-0.000	-0.000	-0.001	-0.001	0.001	0.001	-0.001	-0.001	-0.000	-0.000	-0.001	-0.000
779.00	-0.000	0.000	0.003	0.001	-0.000	-0.000	-0.001	-0.001	0.001	0.001	-0.001	-0.001	-0.000	-0.000	-0.001	-0.000
780.00	-0.000	0.000	0.003	0.001	-0.000	-0.000	-0.000	-0.001	0.001	0.002	-0.001	-0.001	-0.000	-0.000	-0.001	-0.000
781.00	-0.000	0.000	0.003	0.001	-0.000	-0.000	-0.000	-0.001	0.001	0.002	-0.001	-0.001	-0.000	-0.000	-0.001	-0.000
782.00	-0.000	0.000	0.003	0.001	-0.000	-0.000	-0.000	-0.001	0.001	0.001	-0.001	-0.001	-0.000	-0.000	-0.001	-0.000
783.00	-0.000	0.000	0.003	0.001	-0.000	-0.000	-0.000	-0.001	0.001	0.002	-0.001	-0.001	-0.000	-0.000	-0.000	-0.000
784.00	-0.000	0.000	0.003	0.001	-0.000	-0.000	-0.000	-0.001	0.001	0.001	-0.001	-0.001	-0.000	-0.000	-0.000	-0.000
785.00	-0.000	0.000	0.003	0.001	-0.000	-0.000	-0.000	-0.001	0.001	0.002	-0.001	-0.001	-0.000	-0.000	-0.000	-0.000
786.00	-0.000	0.000	0.003	0.001	-0.000	-0.000	-0.000	-0.001	0.001	0.002	-0.001	-0.001	-0.000	-0.000	-0.000	-0.000
787.00	-0.000	0.000	0.003	0.001	-0.000	-0.000	-0.000	-0.001	0.001	0.002	-0.000	-0.001	-0.000	-0.000	-0.000	-0.000
788.00	-0.000	0.000	0.003	0.001	-0.000	-0.000	-0.000	-0.001	0.001	0.002	-0.001	-0.001	-0.000	-0.000	-0.001	-0.000
789.00	-0.000	0.000	0.003	0.001	-0.000	-0.000	-0.000	-0.001	0.001	0.002	-0.001	-0.001	-0.000	-0.000	-0.001	-0.000
790.00	-0.000	0.000	0.003	0.001	-0.000	-0.000	-0.000	-0.001	0.001	0.002	-0.001	-0.001	-0.000	-0.000	-0.001	-0.000
791.00	-0.000	0.000	0.003	0.001	-0.000	-0.000	-0.000	-0.001	0.001	0.002	-0.000	-0.001	-0.000	-0.000	-0.001	-0.000
792.00	-0.000	0.000	0.003	0.001	-0.000	-0.000	-0.000	-0.001	0.001	0.002	-0.001	-0.001	-0.000	-0.000	-0.001	-0.000
793.00	-0.000	0.000	0.003	0.001	-0.000	-0.000	-0.000	-0.001	0.001	0.002	-0.001	-0.001	-0.000	-0.000	-0.001	-0.000
794.00	-0.000	0.000	0.003	0.001	-0.000	-0.000	-0.000	-0.001	0.001	0.001	-0.001	-0.001	-0.000	-0.000	-0.001	-0.000
795.00	-0.000	0.000	0.003	0.001	-0.000	-0.000	-0.001	-0.001	0.001	0.001	-0.001	-0.001	-0.000	-0.000	-0.001	-0.000
796.00	-0.000	0.000	0.003	0.001	-0.000	-0.000	-0.001	-0.001	0.001	0.001	-0.001	-0.001	-0.000	-0.000	-0.001	-0.000
797.00	-0.000	0.000	0.003	0.001	-0.000	-0.000	-0.000	-0.001	0.001	0.001	-0.001	-0.001	-0.000	-0.000	-0.001	-0.000
798.00	-0.000	0.000	0.003	0.001	-0.000	-0.000	-0.000	-0.001	0.001	0.001	-0.001	-0.001	-0.000	-0.000	-0.001	-0.000
799.00	-0.000	0.000	0.003	0.001	-0.000	-0.000	-0.000	-0.001	0.001	0.002	-0.001	-0.001	-0.000	-0.000	-0.000	-0.000
800.00	-0.000	0.000	0.003	0.001	-0.000	-0.000	-0.000	-0.001	0.001	0.002	-0.001	-0.001	-0.000	-0.000	-0.001	-0.000
801.00	-0.000	0.000	0.003	0.001	-0.000	-0.000	-0.000	-0.001	0.001	0.002	-0.001	-0.001	-0.000	-0.000	-0.001	-0.000
802.00	-0.000	0.000	0.003	0.001	-0.000	-0.000	-0.000	-0.001	0.001	0.002	-0.000	-0.001	-0.000	-0.000	-0.000	-0.000
803.00	-0.000	0.000	0.003	0.001	-0.000	-0.000	-0.000	-0.001	0.001	0.002	-0.001	-0.001	-0.000	-0.000	-0.000	-0.000
804.00	-0.000	0.000	0.003	0.001	-0.000	-0.000	-0.000	-0.001	0.001	0.002	-0.001	-0.001	-0.000	-0.000	-0.001	-0.000
805.00	-0.000	0.000	0.003	0.001	-0.000	-0.000	-0.000	-0.001	0.001	0.002	-0.001	-0.001	-0.000	-0.000	-0.001	-0.000
806.00	-0.000	0.000	0.003	0.001	-0.000	-0.000	-0.000	-0.001	0.001	0.002	-0.001	-0.001	-0.000	-0.000	-0.001	-0.000
807.00	-0.000	0.000	0.003	0.001	-0.000	-0.000	-0.000	-0.001	0.001	0.002	-0.001	-0.001	-0.000	-0.000	-0.000	-0.000
808.00	-0.000	0.000	0.003	0.001	-0.000	-0.000	-0.000	-0.001	0.001	0.002	-0.001	-0.001	-0.000	-0.000	-0.000	-0.000
809.00	-0.000	0.000	0.003	0.001	-0.000	-0.000	-0.000	-0.000	0.001	0.002	-0.001	-0.001	-0.000	-0.000	-0.000	-0.000
810.00	-0.000	0.000	0.003	0.001	-0.000	-0.000	-0.000	-0.001	0.001	0.002	-0.000	-0.001	-0.000	-0.000	-0.000	-0.000
811.00	-0.000	0.000	0.003	0.001	-0.000	-0.000	-0.000	-0.001	0.001	0.002	-0.000	-0.001	-0.000	-0.000	-0.001	-0.000
812.00	-0.000	0.000	0.003	0.001	-0.000	-0.000	-0.000	-0.001	0.001	0.001	-0.000	-0.001	-0.000	-0.000	-0.000	-0.000
813.00	-0.000	0.000	0.003	0.001	-0.000	-0.000	-0.000	-0.001	0.001	0.002	-0.000	-0.001	-0.000	-0.000	-0.000	0.000
814.00	-0.000	0.000	0.003	0.001	-0.000	-0.000	-0.000	-0.001	0.001	0.002	-0.001	-0.001	-0.000	-0.000	-0.001	-0.000
815.00	-0.000	0.000	0.003	0.001	-0.000	-0.000	-0.000	-0.001	0.001	0.001	-0.001	-0.001	-0.000	-0.000	-0.000	-0.000
816.00	-0.000	0.000	0.003	0.001	-0.000	-0.000	-0.000	-0.001	0.001	0.002	-0.000	-0.001	-0.000	-0.000	-0.000	-0.000
817.00	-0.000	0.000	0.003	0.001	-0.000	-0.000	-0.000	-0.001	0.001	0.002	-0.000	-0.000	-0.000	-0.000	-0.000	-0.000
818.00	-0.000	0.000	0.003	0.001	0.000	-0.000	-0.000	-0.001	0.001	0.002	-0.000	-0.001	-0.000	-0.000	-0.000	-0.000
819.00	-0.000	0.000	0.003	0.001	0.000	-0.000	-0.000	-0.001	0.001	0.002	-0.000	-0.001	-0.000	-0.000	-0.000	-0.000
820.00	-0.000	0.000	0.003	0.001	-0.000	-0.000	-0.000	-0.001	0.001	0.002	-0.001	-0.001	-0.000	-0.000	-0.000	-0.000
821.00	-0.000	0.000	0.003	0.001	-0.000	-0.000	-0.000	-0.001	0.001	0.002	-0.001	-0.001	-0.000	-0.000	-0.000	-0.000
822.00	-0.000	0.000	0.003	0.001	-0.000	-0.000	-0.000	-0.001	0.001	0.001	-0.001	-0.001	-0.000	-0.000	-0.000	-0.000
823.00	-0.000	0.000	0.003	0.001	-0.000	-0.000	-0.001	-0.001	0.001	0.001	-0.001	-0.001	-0.000	-0.000	-0.001	-0.000
824.00	-0.000	0.000	0.003	0.001	-0.000	-0.000	-0.001	-0.001	0.001	0.001	-0.001	-0.001	-0.000	-0.000	-0.000	-0.000
825.00	-0.000	0.000	0.003	0.001	-0.000	-0.000	-0.000	-0.001	0.001	0.002	-0.001	-0.001	-0.000	-0.000	-0.000	-0.000
826.00	-0.000	0.000	0.003	0.001	-0.000	-0.000	-0.000	-0.001	0.001	0.002	-0.001	-0.001	-0.000	-0.000	-0.000	-0.000
827.00	-0.000	0.000	0.003	0.001	-0.000	-0.000	-0.000	-0.001	0.001	0.002	-0.001	-0.001	-0.000	-0.000	-0.001	-0.000
828.00	0.000	0.000	0.003	0.001	-0.000	-0.000	-0.000	-0.001	0.001	0.001	-0.000	-0.001	-0.000	-0.000	-0.000	-0.000
829.00	-0.000	0.000	0.003	0.001	-0.000	-0.000	-0.000	-0.001	0.001	0.001	-0.001	-0.001	-0.000	-0.000	-0.001	-0.000
830.00	-0.000	0.000	0.003	0.001	-0.000	-0.000	-0.000	-0.001	0.001	0.001	-0.001	-0.001	-0.000	-0.000	-0.001	-0.000
831.00	-0.000	0.000	0.003	0.001	-0.000	-0.000	-0.001	-0.001	0.001	0.001	-0.001	-0.001	-0.000	-0.000	-0.001	-0.000
832.00	-0.000	0.000	0.003	0.000	-0.000	-0.000	-0.001	-0.001	0.001	0.001	-0.001	-0.001	-0.000	-0.000	-0.001	-0.000
833.00	-0.000	0.000	0.003	0.000	-0.000	-0.000	-0.001	-0.001	0.001	0.001	-0.001	-0.001	-0.000	-0.000	-0.001	-0.000
834.00	0.000	0.000	0.003	0.000	-0.000	-0.000	-0.001	-0.001	0.001	0.001	-0.001	-0.001	-0.000	-0.000	-0.001	-0.000
835.00	0.000	0.000	0.003	0.001	-0.000	-0.000	-0.000	-0.001	0.001	0.001	-0.001	-0.001	-0.000	-0.000	-0.001	-0.000
836.00	0.000	0.000	0.003	0.001	-0.000	-0.000	-0.001	-0.001	0.001	0.001	-0.001	-0.001	-0.000	-0.000	-0.001	-0.000
837.00	0.000	0.000	0.003	0.001	-0.000	-0.000	-0.001	-0.001	0.001	0.001	-0.001	-0.001	-0.000	-0.000	-0.000	-0.000
838.00	0.000	0.000	0.003	0.001	-0.000	-0.000	-0.001	-0.001	0.001	0.001	-0.001	-0.001	-0.000	-0.000	-0.001	-0.000
839.00	0.000	0.000	0.003	0.001	-0.000	-0.000	-0.001	-0.001	0.001	0.001	-0.001	-0.001	-0.000	-0.000	-0.001	-0.000
840.00	0.000	0.000	0.003	0.000	-0.000	-0.000	-0.001	-0.001	0.001	0.001	-0.001	-0.001	-0.000	-0.000	-0.001	-0.000
841.00	0.000	0.000	0.003	0.001	-0.000	-0.000	-0.001	-0.001	0.001	0.001	-0.001	-0.001	-0.000	-0.000	-0.001	-0.000
842.00	0.000	0.000	0.003	0.001	-0.000	-0.000	-0.001	-0.001	0.001	0.001	-0.001	-0.001	-0.000	-0.000	-0.001	-0.000
843.00	-0.000	0.000	0.003	0.000	-0.000	-0.000	-0.001	-0.001	0.001	0.001	-0.001	-0.001	-0.000	-0.000	-0.001	-0.000
844.00	0.000	0.000	0.003	0.000	-0.000	-0.000	-0.001	-0.001	0.001	0.001	-0.001	-0.001	-0.000	-0.000	-0.001	-0.000
845.00	0.000	0.000	0.003	0.001	-0.000	-0.000	-0.001	-0.001	0.001	0.001	-0.001	-0.001	-0.000	-0.000	-0.001	-0.000
846.00	0.000	0.000	0.003	0.001	-0.000	-0.000	-0.001	-0.001	0.001	0.001	-0.001	-0.001	-0.000	-0.000	-0.001	-0.000
847.00	0.000	0.000	0.003	0.001	-0.000	-0.000	-0.001	-0.001	0.001	0.001	-0.001	-0.001	-0.000	-0.000	-0.001	-0.000
848.00	0.000	0.000	0.003	0.001	-0.000	-0.000	-0.001	-0.001	0.001	0.001	-0.001	-0.001	-0.000	-0.000	-0.001	-0.000
849.00	-0.000	-0.000	0.003	0.001	-0.000	-0.000	-0.001	-0.001	0.001	0.001	-0.001	-0.001	-0.000	-0.000	-0.001	-0.000
850.00	0.000	0.000	0.003	0.001	-0.000	-0.000	-0.001	-0.001	0.001	0.001	-0.001	-0.001	-0.000	-0.000	-0.001	-0.000
