Wavelength nm.	RawData ...	RawData ...	RawData ...	RawData ...	RawData ...	RawData ...	RawData ...	RawData ...	RawData ...	RawData ...	RawData ...	RawData ...	RawData ...	RawData ...
190.00	0.013	0.354	0.417	0.400	0.362	0.390	0.392	0.384	0.459	0.318	0.395	0.448	0.362	0.294
191.00	0.010	0.337	0.380	0.366	0.332	0.356	0.360	0.349	0.422	0.302	0.364	0.410	0.331	0.284
192.00	0.010	0.323	0.346	0.334	0.303	0.329	0.329	0.315	0.389	0.292	0.331	0.377	0.302	0.274
193.00	0.009	0.310	0.313	0.301	0.270	0.300	0.295	0.283	0.354	0.280	0.298	0.337	0.269	0.263
194.00	0.009	0.299	0.284	0.275	0.246	0.278	0.269	0.257	0.325	0.271	0.272	0.309	0.244	0.255
195.00	0.009	0.288	0.258	0.251	0.222	0.257	0.244	0.233	0.299	0.264	0.248	0.281	0.221	0.247
196.00	0.009	0.279	0.236	0.230	0.202	0.239	0.223	0.213	0.276	0.257	0.227	0.258	0.202	0.240
197.00	0.008	0.271	0.217	0.211	0.185	0.223	0.204	0.195	0.255	0.250	0.208	0.237	0.185	0.233
198.00	0.008	0.264	0.201	0.195	0.171	0.210	0.189	0.180	0.236	0.244	0.192	0.218	0.171	0.228
199.00	0.008	0.258	0.186	0.181	0.158	0.198	0.175	0.166	0.220	0.239	0.178	0.203	0.159	0.223
200.00	0.007	0.252	0.172	0.169	0.148	0.188	0.164	0.155	0.206	0.235	0.165	0.189	0.148	0.219
201.00	0.007	0.246	0.160	0.158	0.138	0.179	0.154	0.144	0.193	0.230	0.154	0.177	0.139	0.215
202.00	0.006	0.241	0.149	0.149	0.129	0.171	0.145	0.136	0.182	0.226	0.144	0.166	0.130	0.211
203.00	0.006	0.237	0.141	0.141	0.122	0.165	0.137	0.129	0.173	0.222	0.137	0.157	0.124	0.208
204.00	0.006	0.232	0.133	0.134	0.116	0.159	0.130	0.122	0.163	0.218	0.129	0.149	0.117	0.204
205.00	0.005	0.227	0.126	0.128	0.110	0.154	0.124	0.116	0.155	0.214	0.123	0.141	0.112	0.200
206.00	0.005	0.222	0.120	0.123	0.105	0.149	0.119	0.111	0.148	0.210	0.118	0.135	0.107	0.196
207.00	0.005	0.218	0.116	0.118	0.101	0.145	0.115	0.107	0.143	0.205	0.113	0.129	0.103	0.192
208.00	0.005	0.213	0.112	0.114	0.097	0.141	0.111	0.103	0.138	0.201	0.109	0.124	0.100	0.188
209.00	0.005	0.207	0.107	0.110	0.094	0.137	0.107	0.099	0.132	0.195	0.105	0.119	0.096	0.184
210.00	0.005	0.202	0.104	0.106	0.091	0.134	0.104	0.096	0.127	0.190	0.101	0.115	0.093	0.179
211.00	0.005	0.196	0.100	0.103	0.088	0.130	0.101	0.093	0.123	0.184	0.098	0.111	0.090	0.174
212.00	0.004	0.190	0.097	0.100	0.085	0.127	0.098	0.090	0.119	0.178	0.095	0.107	0.088	0.169
213.00	0.004	0.184	0.094	0.097	0.082	0.124	0.095	0.088	0.115	0.172	0.092	0.103	0.085	0.164
214.00	0.004	0.178	0.092	0.094	0.080	0.122	0.093	0.085	0.111	0.166	0.089	0.100	0.083	0.159
215.00	0.004	0.172	0.089	0.091	0.078	0.119	0.090	0.083	0.108	0.160	0.087	0.096	0.081	0.153
216.00	0.004	0.166	0.087	0.089	0.076	0.116	0.088	0.081	0.105	0.154	0.084	0.094	0.079	0.148
217.00	0.004	0.160	0.085	0.086	0.074	0.114	0.086	0.079	0.102	0.148	0.082	0.091	0.077	0.142
218.00	0.004	0.155	0.083	0.084	0.072	0.112	0.084	0.077	0.099	0.142	0.080	0.089	0.075	0.138
219.00	0.004	0.149	0.081	0.082	0.070	0.110	0.082	0.075	0.097	0.136	0.078	0.086	0.073	0.133
220.00	0.004	0.144	0.079	0.081	0.069	0.108	0.081	0.074	0.095	0.131	0.076	0.084	0.071	0.128
221.00	0.004	0.140	0.077	0.079	0.067	0.106	0.079	0.072	0.092	0.126	0.074	0.082	0.070	0.124
222.00	0.004	0.135	0.075	0.077	0.065	0.104	0.078	0.071	0.090	0.122	0.073	0.080	0.068	0.120
223.00	0.004	0.131	0.074	0.075	0.064	0.102	0.076	0.069	0.088	0.117	0.071	0.078	0.067	0.116
224.00	0.004	0.127	0.072	0.074	0.063	0.100	0.075	0.068	0.086	0.113	0.070	0.076	0.066	0.112
225.00	0.003	0.123	0.071	0.072	0.061	0.099	0.073	0.066	0.084	0.109	0.068	0.074	0.064	0.109
226.00	0.003	0.119	0.069	0.071	0.060	0.097	0.072	0.065	0.081	0.105	0.066	0.072	0.063	0.105
227.00	0.003	0.115	0.068	0.069	0.059	0.095	0.070	0.064	0.079	0.102	0.065	0.071	0.062	0.102
228.00	0.003	0.112	0.066	0.068	0.058	0.094	0.069	0.063	0.077	0.099	0.064	0.069	0.061	0.100
229.00	0.003	0.110	0.065	0.067	0.057	0.092	0.068	0.061	0.076	0.096	0.062	0.068	0.059	0.097
230.00	0.003	0.107	0.063	0.065	0.056	0.091	0.067	0.060	0.074	0.093	0.061	0.066	0.058	0.095
231.00	0.003	0.104	0.062	0.064	0.055	0.090	0.066	0.059	0.072	0.091	0.060	0.065	0.057	0.092
232.00	0.003	0.102	0.061	0.063	0.053	0.088	0.064	0.058	0.070	0.088	0.059	0.063	0.056	0.090
233.00	0.003	0.099	0.060	0.061	0.052	0.087	0.063	0.057	0.069	0.086	0.058	0.062	0.055	0.088
234.00	0.003	0.097	0.058	0.060	0.052	0.086	0.063	0.056	0.067	0.084	0.057	0.060	0.054	0.086
235.00	0.002	0.095	0.057	0.059	0.051	0.084	0.062	0.055	0.066	0.083	0.056	0.059	0.054	0.085
236.00	0.002	0.093	0.056	0.058	0.050	0.083	0.061	0.054	0.065	0.081	0.055	0.058	0.053	0.083
237.00	0.002	0.092	0.056	0.057	0.049	0.082	0.060	0.054	0.064	0.079	0.054	0.057	0.052	0.082
238.00	0.002	0.090	0.055	0.056	0.048	0.081	0.059	0.053	0.062	0.078	0.053	0.056	0.051	0.080
239.00	0.002	0.089	0.054	0.056	0.048	0.080	0.058	0.052	0.062	0.077	0.052	0.055	0.050	0.079
240.00	0.002	0.087	0.053	0.055	0.047	0.079	0.058	0.051	0.061	0.076	0.051	0.054	0.050	0.078
241.00	0.002	0.086	0.052	0.054	0.047	0.078	0.057	0.051	0.060	0.074	0.050	0.054	0.049	0.077
242.00	0.002	0.085	0.052	0.053	0.046	0.077	0.056	0.050	0.059	0.073	0.050	0.053	0.049	0.076
243.00	0.002	0.084	0.051	0.053	0.046	0.076	0.056	0.050	0.058	0.072	0.049	0.052	0.048	0.075
244.00	0.002	0.083	0.051	0.052	0.045	0.076	0.055	0.049	0.057	0.071	0.049	0.051	0.048	0.074
245.00	0.002	0.081	0.050	0.052	0.044	0.075	0.055	0.048	0.057	0.070	0.048	0.051	0.047	0.073
246.00	0.002	0.081	0.050	0.051	0.044	0.074	0.054	0.048	0.056	0.069	0.048	0.050	0.047	0.072
247.00	0.002	0.080	0.049	0.051	0.043	0.073	0.054	0.048	0.055	0.068	0.047	0.050	0.046	0.071
248.00	0.002	0.079	0.049	0.050	0.043	0.073	0.053	0.047	0.055	0.068	0.047	0.049	0.046	0.070
249.00	0.002	0.078	0.048	0.050	0.043	0.073	0.053	0.047	0.055	0.067	0.046	0.049	0.046	0.070
250.00	0.002	0.077	0.048	0.050	0.043	0.072	0.053	0.047	0.055	0.067	0.046	0.048	0.046	0.069
251.00	0.002	0.077	0.048	0.049	0.043	0.072	0.052	0.046	0.054	0.066	0.046	0.048	0.045	0.068
252.00	0.002	0.076	0.047	0.049	0.042	0.071	0.052	0.046	0.053	0.065	0.045	0.048	0.045	0.067
253.00	0.001	0.075	0.047	0.048	0.042	0.070	0.051	0.045	0.053	0.064	0.045	0.047	0.044	0.067
254.00	0.001	0.074	0.047	0.048	0.041	0.070	0.051	0.045	0.053	0.064	0.045	0.047	0.044	0.066
255.00	0.002	0.074	0.046	0.048	0.041	0.069	0.051	0.045	0.052	0.063	0.044	0.047	0.043	0.066
256.00	0.002	0.073	0.046	0.047	0.041	0.069	0.051	0.045	0.052	0.063	0.044	0.046	0.043	0.065
257.00	0.002	0.073	0.046	0.047	0.040	0.068	0.050	0.044	0.052	0.062	0.044	0.046	0.043	0.065
258.00	0.002	0.072	0.046	0.047	0.040	0.068	0.050	0.044	0.052	0.062	0.043	0.046	0.043	0.064
259.00	0.002	0.071	0.045	0.046	0.040	0.068	0.049	0.044	0.051	0.061	0.043	0.045	0.042	0.063
260.00	0.002	0.071	0.045	0.046	0.039	0.067	0.049	0.043	0.051	0.060	0.043	0.045	0.042	0.063
261.00	0.002	0.070	0.045	0.045	0.039	0.066	0.049	0.043	0.051	0.060	0.042	0.045	0.042	0.062
262.00	0.002	0.069	0.044	0.045	0.039	0.066	0.048	0.042	0.050	0.059	0.042	0.044	0.041	0.062
263.00	0.001	0.069	0.044	0.044	0.038	0.065	0.048	0.042	0.050	0.059	0.041	0.044	0.041	0.061
264.00	0.001	0.068	0.043	0.044	0.038	0.064	0.047	0.041	0.050	0.058	0.041	0.043	0.040	0.060
265.00	0.001	0.067	0.042	0.043	0.037	0.064	0.046	0.041	0.049	0.057	0.040	0.043	0.040	0.060
266.00	0.001	0.067	0.042	0.043	0.037	0.063	0.046	0.040	0.049	0.057	0.040	0.042	0.039	0.059
267.00	0.002	0.066	0.041	0.042	0.036	0.062	0.045	0.040	0.048	0.056	0.039	0.042	0.039	0.058
268.00	0.002	0.065	0.041	0.042	0.036	0.062	0.045	0.039	0.048	0.056	0.039	0.041	0.038	0.058
269.00	0.001	0.065	0.040	0.041	0.035	0.061	0.044	0.039	0.047	0.055	0.038	0.041	0.037	0.057
270.00	0.002	0.064	0.040	0.041	0.035	0.060	0.044	0.038	0.047	0.054	0.038	0.040	0.037	0.056
271.00	0.001	0.064	0.039	0.040	0.034	0.059	0.043	0.037	0.046	0.053	0.037	0.039	0.036	0.056
272.00	0.001	0.063	0.038	0.039	0.033	0.058	0.042	0.036	0.045	0.053	0.036	0.039	0.035	0.055
273.00	0.001	0.062	0.038	0.038	0.033	0.057	0.041	0.036	0.045	0.052	0.035	0.038	0.035	0.054
274.00	0.002	0.062	0.037	0.038	0.032	0.057	0.041	0.035	0.044	0.052	0.035	0.038	0.034	0.054
275.00	0.001	0.061	0.036	0.037	0.031	0.056	0.040	0.035	0.043	0.051	0.034	0.037	0.033	0.053
276.00	0.001	0.060	0.036	0.036	0.030	0.055	0.039	0.034	0.043	0.050	0.033	0.036	0.033	0.052
277.00	0.001	0.059	0.035	0.036	0.030	0.054	0.038	0.033	0.042	0.050	0.033	0.035	0.032	0.052
278.00	0.001	0.059	0.034	0.035	0.029	0.053	0.038	0.032	0.041	0.049	0.032	0.034	0.031	0.051
279.00	0.001	0.058	0.034	0.034	0.028	0.052	0.037	0.031	0.040	0.048	0.031	0.034	0.030	0.051
280.00	0.001	0.058	0.033	0.033	0.028	0.052	0.036	0.031	0.040	0.048	0.030	0.033	0.030	0.050
281.00	0.001	0.057	0.032	0.033	0.027	0.051	0.036	0.030	0.039	0.048	0.030	0.033	0.029	0.049
282.00	0.001	0.056	0.031	0.032	0.027	0.050	0.035	0.030	0.038	0.047	0.029	0.032	0.028	0.049
283.00	0.001	0.055	0.031	0.031	0.026	0.049	0.034	0.029	0.037	0.046	0.029	0.031	0.028	0.048
284.00	0.001	0.055	0.030	0.030	0.025	0.048	0.033	0.028	0.036	0.045	0.028	0.030	0.027	0.047
285.00	0.001	0.054	0.029	0.030	0.024	0.047	0.032	0.027	0.035	0.045	0.027	0.029	0.026	0.047
286.00	0.001	0.053	0.029	0.029	0.024	0.047	0.032	0.027	0.035	0.044	0.026	0.029	0.026	0.046
287.00	0.001	0.053	0.028	0.028	0.023	0.046	0.031	0.026	0.034	0.044	0.026	0.028	0.025	0.045
288.00	0.001	0.052	0.027	0.028	0.022	0.045	0.030	0.025	0.033	0.043	0.025	0.027	0.024	0.045
289.00	0.001	0.051	0.027	0.027	0.022	0.044	0.030	0.025	0.032	0.043	0.024	0.027	0.024	0.044
290.00	0.001	0.050	0.026	0.026	0.021	0.043	0.029	0.024	0.031	0.042	0.024	0.026	0.023	0.043
291.00	0.001	0.050	0.025	0.026	0.021	0.043	0.028	0.023	0.030	0.041	0.023	0.025	0.022	0.043
292.00	0.001	0.049	0.024	0.025	0.020	0.042	0.028	0.023	0.030	0.041	0.023	0.024	0.022	0.042
293.00	0.001	0.049	0.024	0.024	0.019	0.041	0.027	0.022	0.029	0.040	0.022	0.024	0.021	0.041
294.00	0.001	0.048	0.023	0.024	0.019	0.041	0.027	0.022	0.028	0.039	0.021	0.023	0.021	0.041
295.00	0.001	0.047	0.023	0.023	0.018	0.040	0.026	0.021	0.027	0.039	0.021	0.022	0.020	0.040
296.00	0.001	0.046	0.022	0.023	0.018	0.039	0.026	0.021	0.026	0.038	0.020	0.022	0.020	0.040
297.00	0.001	0.046	0.022	0.022	0.018	0.039	0.025	0.020	0.026	0.038	0.020	0.021	0.019	0.039
298.00	0.001	0.045	0.021	0.022	0.017	0.038	0.025	0.020	0.025	0.037	0.019	0.021	0.019	0.039
299.00	0.001	0.044	0.020	0.021	0.017	0.037	0.024	0.019	0.024	0.037	0.019	0.020	0.018	0.038
300.00	0.001	0.044	0.020	0.021	0.016	0.037	0.024	0.019	0.024	0.036	0.018	0.020	0.018	0.038
301.00	0.001	0.044	0.020	0.020	0.016	0.036	0.023	0.018	0.023	0.036	0.018	0.019	0.018	0.037
302.00	0.001	0.043	0.019	0.020	0.015	0.036	0.023	0.018	0.023	0.035	0.018	0.019	0.017	0.036
303.00	0.001	0.042	0.019	0.019	0.015	0.035	0.022	0.017	0.022	0.035	0.017	0.018	0.017	0.036
304.00	0.001	0.041	0.018	0.019	0.015	0.034	0.022	0.017	0.021	0.034	0.016	0.017	0.016	0.035
305.00	0.001	0.041	0.018	0.018	0.014	0.034	0.022	0.017	0.021	0.034	0.016	0.017	0.016	0.035
306.00	0.001	0.040	0.017	0.018	0.014	0.033	0.021	0.016	0.020	0.033	0.016	0.017	0.015	0.034
307.00	0.001	0.040	0.017	0.018	0.013	0.033	0.021	0.016	0.020	0.033	0.015	0.016	0.015	0.034
308.00	0.001	0.039	0.017	0.018	0.013	0.033	0.021	0.016	0.019	0.032	0.015	0.016	0.015	0.033
309.00	0.001	0.039	0.017	0.017	0.013	0.032	0.020	0.015	0.019	0.032	0.015	0.016	0.015	0.033
310.00	0.001	0.038	0.016	0.016	0.012	0.031	0.020	0.015	0.018	0.031	0.014	0.015	0.014	0.032
311.00	0.001	0.037	0.016	0.016	0.012	0.031	0.020	0.015	0.018	0.031	0.014	0.015	0.014	0.032
312.00	0.001	0.037	0.016	0.016	0.012	0.031	0.019	0.014	0.018	0.030	0.014	0.015	0.014	0.031
313.00	0.001	0.036	0.015	0.016	0.012	0.030	0.019	0.014	0.017	0.030	0.013	0.014	0.014	0.031
314.00	0.001	0.036	0.015	0.015	0.012	0.030	0.019	0.014	0.017	0.030	0.013	0.014	0.013	0.031
315.00	0.001	0.035	0.015	0.015	0.011	0.030	0.018	0.014	0.017	0.029	0.013	0.013	0.013	0.030
316.00	0.001	0.035	0.014	0.015	0.011	0.029	0.018	0.013	0.016	0.029	0.013	0.013	0.013	0.030
317.00	0.001	0.035	0.014	0.015	0.011	0.029	0.018	0.013	0.016	0.028	0.012	0.013	0.012	0.029
318.00	0.001	0.034	0.014	0.014	0.011	0.029	0.018	0.013	0.016	0.028	0.012	0.012	0.012	0.029
319.00	0.001	0.034	0.014	0.014	0.010	0.028	0.018	0.013	0.015	0.027	0.012	0.012	0.012	0.028
320.00	0.001	0.033	0.013	0.014	0.010	0.028	0.017	0.012	0.015	0.027	0.012	0.012	0.012	0.028
321.00	0.001	0.033	0.013	0.014	0.010	0.027	0.017	0.012	0.015	0.027	0.011	0.012	0.012	0.027
322.00	0.001	0.032	0.013	0.013	0.010	0.027	0.017	0.012	0.014	0.026	0.011	0.012	0.011	0.027
323.00	0.001	0.032	0.013	0.013	0.010	0.027	0.016	0.012	0.014	0.026	0.011	0.011	0.011	0.027
324.00	0.001	0.032	0.013	0.013	0.010	0.026	0.016	0.012	0.014	0.026	0.011	0.011	0.011	0.026
325.00	0.001	0.031	0.013	0.013	0.010	0.026	0.016	0.012	0.014	0.025	0.011	0.011	0.011	0.026
326.00	0.001	0.031	0.012	0.012	0.009	0.026	0.016	0.011	0.013	0.025	0.011	0.011	0.011	0.025
327.00	0.001	0.031	0.012	0.012	0.009	0.026	0.016	0.011	0.013	0.024	0.010	0.011	0.010	0.025
328.00	0.001	0.030	0.012	0.012	0.009	0.025	0.016	0.011	0.013	0.024	0.010	0.010	0.010	0.025
329.00	0.001	0.030	0.012	0.012	0.009	0.025	0.015	0.011	0.013	0.024	0.010	0.010	0.010	0.025
330.00	0.001	0.029	0.011	0.012	0.009	0.025	0.015	0.011	0.012	0.024	0.010	0.010	0.010	0.024
331.00	0.001	0.029	0.011	0.011	0.008	0.024	0.015	0.010	0.012	0.023	0.010	0.010	0.010	0.024
332.00	0.001	0.029	0.011	0.011	0.008	0.024	0.015	0.010	0.012	0.023	0.010	0.010	0.010	0.023
333.00	0.001	0.028	0.011	0.011	0.008	0.024	0.014	0.010	0.012	0.023	0.009	0.010	0.010	0.023
334.00	0.001	0.028	0.011	0.011	0.008	0.024	0.014	0.010	0.012	0.022	0.009	0.009	0.009	0.023
335.00	0.001	0.028	0.010	0.011	0.008	0.023	0.014	0.010	0.012	0.022	0.009	0.009	0.009	0.022
336.00	0.001	0.027	0.011	0.010	0.008	0.023	0.014	0.010	0.011	0.022	0.009	0.009	0.009	0.022
337.00	0.001	0.027	0.010	0.011	0.007	0.023	0.014	0.009	0.011	0.021	0.009	0.009	0.009	0.022
338.00	0.001	0.026	0.010	0.010	0.007	0.022	0.014	0.009	0.011	0.021	0.009	0.009	0.009	0.022
339.00	0.001	0.026	0.010	0.010	0.008	0.023	0.014	0.010	0.011	0.022	0.009	0.009	0.009	0.022
340.00	0.002	0.027	0.011	0.011	0.008	0.023	0.015	0.010	0.012	0.022	0.010	0.010	0.010	0.022
341.00	0.001	0.026	0.010	0.010	0.007	0.022	0.014	0.009	0.010	0.020	0.009	0.009	0.009	0.021
342.00	0.001	0.025	0.010	0.010	0.007	0.021	0.013	0.009	0.010	0.020	0.008	0.008	0.008	0.021
343.00	0.000	0.025	0.009	0.009	0.007	0.021	0.013	0.008	0.010	0.019	0.008	0.008	0.008	0.020
344.00	0.001	0.024	0.009	0.009	0.007	0.020	0.013	0.008	0.010	0.019	0.008	0.008	0.008	0.019
345.00	0.001	0.024	0.009	0.009	0.007	0.020	0.012	0.008	0.009	0.019	0.008	0.008	0.008	0.019
346.00	0.001	0.023	0.009	0.009	0.006	0.020	0.012	0.008	0.010	0.019	0.008	0.008	0.008	0.019
347.00	0.001	0.023	0.009	0.009	0.007	0.020	0.012	0.008	0.009	0.018	0.008	0.008	0.008	0.019
348.00	0.001	0.023	0.009	0.009	0.006	0.020	0.012	0.008	0.009	0.018	0.007	0.007	0.007	0.018
349.00	0.000	0.023	0.009	0.008	0.006	0.019	0.012	0.008	0.009	0.017	0.007	0.007	0.007	0.018
350.00	0.001	0.022	0.009	0.008	0.006	0.019	0.012	0.007	0.009	0.017	0.007	0.007	0.007	0.018
351.00	0.001	0.022	0.008	0.009	0.006	0.019	0.012	0.007	0.009	0.017	0.007	0.007	0.007	0.018
352.00	0.001	0.022	0.008	0.008	0.006	0.019	0.012	0.007	0.009	0.017	0.007	0.007	0.007	0.017
353.00	0.001	0.021	0.008	0.008	0.006	0.018	0.012	0.007	0.008	0.017	0.007	0.007	0.007	0.017
354.00	0.001	0.021	0.008	0.008	0.005	0.018	0.011	0.007	0.008	0.016	0.007	0.007	0.007	0.016
355.00	0.001	0.021	0.008	0.008	0.005	0.018	0.011	0.007	0.008	0.016	0.007	0.006	0.007	0.016
356.00	0.001	0.020	0.008	0.007	0.005	0.017	0.011	0.007	0.008	0.016	0.006	0.006	0.007	0.016
357.00	0.000	0.020	0.008	0.007	0.005	0.017	0.011	0.007	0.008	0.016	0.006	0.006	0.007	0.015
358.00	0.000	0.020	0.007	0.007	0.005	0.017	0.011	0.006	0.007	0.015	0.006	0.006	0.006	0.015
359.00	0.001	0.020	0.007	0.007	0.005	0.017	0.011	0.006	0.008	0.015	0.006	0.006	0.006	0.015
360.00	0.000	0.019	0.007	0.007	0.005	0.017	0.010	0.006	0.007	0.015	0.006	0.006	0.006	0.015
361.00	0.001	0.019	0.007	0.007	0.005	0.017	0.010	0.006	0.007	0.014	0.006	0.006	0.006	0.015
362.00	0.001	0.019	0.007	0.007	0.005	0.016	0.010	0.006	0.007	0.014	0.006	0.006	0.006	0.014
363.00	0.001	0.019	0.007	0.007	0.005	0.016	0.010	0.006	0.007	0.014	0.006	0.006	0.006	0.014
364.00	0.000	0.018	0.007	0.006	0.005	0.016	0.010	0.006	0.007	0.014	0.006	0.006	0.006	0.014
365.00	0.000	0.018	0.007	0.006	0.004	0.016	0.010	0.006	0.007	0.014	0.005	0.005	0.006	0.014
366.00	0.000	0.018	0.007	0.007	0.004	0.016	0.010	0.006	0.007	0.014	0.005	0.005	0.006	0.013
367.00	0.000	0.017	0.007	0.006	0.004	0.015	0.010	0.005	0.006	0.013	0.005	0.005	0.006	0.013
368.00	-0.000	0.017	0.006	0.006	0.004	0.015	0.010	0.005	0.006	0.013	0.005	0.005	0.005	0.013
369.00	0.000	0.017	0.006	0.006	0.004	0.015	0.009	0.005	0.006	0.013	0.005	0.005	0.005	0.013
370.00	0.000	0.017	0.006	0.006	0.004	0.015	0.009	0.005	0.006	0.012	0.005	0.005	0.005	0.012
371.00	0.000	0.016	0.006	0.006	0.004	0.014	0.009	0.005	0.006	0.012	0.005	0.005	0.005	0.012
372.00	0.000	0.016	0.006	0.006	0.004	0.014	0.009	0.005	0.006	0.012	0.005	0.005	0.005	0.012
373.00	0.000	0.016	0.006	0.006	0.004	0.014	0.009	0.005	0.006	0.012	0.005	0.005	0.005	0.012
374.00	0.000	0.016	0.006	0.006	0.004	0.014	0.009	0.005	0.006	0.012	0.005	0.005	0.005	0.012
375.00	0.000	0.016	0.006	0.006	0.004	0.014	0.009	0.005	0.006	0.012	0.005	0.005	0.005	0.012
376.00	0.000	0.016	0.006	0.005	0.004	0.014	0.009	0.005	0.006	0.012	0.005	0.005	0.005	0.011
377.00	0.000	0.015	0.006	0.005	0.004	0.014	0.009	0.005	0.006	0.011	0.005	0.005	0.005	0.011
378.00	0.001	0.015	0.006	0.005	0.004	0.013	0.009	0.005	0.005	0.011	0.005	0.005	0.005	0.011
379.00	0.001	0.015	0.006	0.005	0.003	0.013	0.009	0.005	0.005	0.011	0.004	0.004	0.005	0.011
380.00	0.000	0.015	0.006	0.005	0.003	0.013	0.008	0.005	0.005	0.011	0.004	0.004	0.005	0.010
381.00	0.001	0.015	0.006	0.005	0.003	0.013	0.009	0.005	0.005	0.011	0.005	0.004	0.004	0.011
382.00	0.000	0.014	0.005	0.005	0.003	0.013	0.008	0.004	0.005	0.010	0.004	0.004	0.004	0.010
383.00	0.000	0.014	0.005	0.005	0.003	0.012	0.008	0.004	0.005	0.010	0.004	0.004	0.004	0.010
384.00	0.001	0.014	0.005	0.005	0.003	0.012	0.008	0.004	0.005	0.010	0.004	0.004	0.004	0.010
385.00	0.000	0.014	0.005	0.005	0.003	0.012	0.008	0.004	0.005	0.010	0.004	0.004	0.004	0.010
386.00	0.000	0.014	0.005	0.005	0.003	0.012	0.008	0.004	0.005	0.010	0.004	0.004	0.004	0.009
387.00	0.000	0.013	0.005	0.004	0.003	0.012	0.008	0.004	0.005	0.010	0.004	0.004	0.004	0.009
388.00	0.000	0.013	0.005	0.005	0.003	0.012	0.008	0.004	0.005	0.010	0.004	0.004	0.004	0.009
389.00	0.000	0.013	0.005	0.004	0.003	0.012	0.008	0.004	0.005	0.009	0.004	0.004	0.004	0.009
390.00	0.000	0.013	0.005	0.004	0.003	0.011	0.008	0.004	0.004	0.009	0.004	0.004	0.004	0.009
391.00	0.000	0.012	0.005	0.004	0.003	0.011	0.008	0.004	0.004	0.009	0.004	0.003	0.004	0.008
392.00	0.000	0.012	0.005	0.004	0.003	0.011	0.008	0.004	0.004	0.009	0.003	0.003	0.004	0.008
393.00	0.000	0.012	0.005	0.004	0.003	0.011	0.008	0.003	0.004	0.009	0.003	0.003	0.004	0.008
394.00	0.000	0.012	0.005	0.004	0.003	0.011	0.008	0.004	0.004	0.009	0.003	0.003	0.004	0.008
395.00	0.000	0.012	0.005	0.004	0.003	0.011	0.008	0.004	0.004	0.009	0.003	0.003	0.004	0.008
396.00	0.000	0.012	0.005	0.004	0.003	0.011	0.008	0.004	0.004	0.008	0.003	0.003	0.004	0.008
397.00	0.000	0.012	0.004	0.004	0.003	0.010	0.007	0.003	0.004	0.008	0.003	0.003	0.003	0.008
398.00	0.000	0.011	0.004	0.004	0.003	0.010	0.007	0.003	0.004	0.008	0.003	0.003	0.003	0.008
399.00	0.000	0.011	0.004	0.004	0.002	0.010	0.007	0.003	0.004	0.008	0.003	0.003	0.003	0.008
400.00	0.000	0.011	0.004	0.004	0.002	0.010	0.007	0.003	0.004	0.008	0.003	0.003	0.003	0.007
401.00	0.000	0.011	0.004	0.004	0.002	0.010	0.007	0.003	0.004	0.008	0.003	0.003	0.003	0.007
402.00	0.000	0.011	0.004	0.004	0.002	0.010	0.007	0.003	0.004	0.008	0.003	0.003	0.003	0.007
403.00	0.000	0.011	0.004	0.004	0.002	0.010	0.007	0.003	0.004	0.008	0.003	0.003	0.003	0.007
404.00	0.000	0.011	0.004	0.003	0.002	0.009	0.007	0.003	0.004	0.007	0.003	0.003	0.003	0.007
405.00	0.000	0.011	0.004	0.003	0.002	0.009	0.007	0.003	0.004	0.007	0.003	0.003	0.003	0.007
406.00	0.000	0.010	0.004	0.003	0.002	0.009	0.007	0.003	0.004	0.007	0.003	0.003	0.003	0.007
407.00	0.000	0.010	0.004	0.003	0.002	0.009	0.007	0.003	0.003	0.007	0.003	0.003	0.003	0.007
408.00	0.000	0.010	0.004	0.003	0.002	0.009	0.007	0.003	0.003	0.007	0.003	0.003	0.003	0.007
409.00	0.000	0.010	0.004	0.003	0.002	0.009	0.007	0.003	0.004	0.007	0.003	0.003	0.003	0.006
410.00	0.000	0.010	0.004	0.003	0.002	0.009	0.007	0.003	0.003	0.007	0.003	0.003	0.003	0.006
411.00	0.000	0.010	0.004	0.003	0.002	0.009	0.006	0.003	0.003	0.007	0.003	0.003	0.003	0.006
412.00	0.000	0.010	0.004	0.003	0.002	0.008	0.006	0.003	0.003	0.007	0.003	0.003	0.003	0.006
413.00	0.000	0.010	0.004	0.003	0.002	0.009	0.006	0.003	0.003	0.007	0.003	0.003	0.003	0.006
414.00	0.000	0.010	0.004	0.003	0.002	0.008	0.006	0.003	0.003	0.007	0.003	0.003	0.003	0.006
415.00	0.000	0.010	0.004	0.003	0.002	0.008	0.006	0.003	0.003	0.006	0.003	0.003	0.003	0.006
416.00	0.000	0.010	0.004	0.003	0.002	0.008	0.006	0.003	0.003	0.006	0.003	0.003	0.003	0.006
417.00	0.000	0.009	0.004	0.003	0.002	0.008	0.006	0.002	0.003	0.006	0.003	0.003	0.003	0.006
418.00	0.000	0.009	0.003	0.003	0.002	0.008	0.006	0.002	0.003	0.006	0.003	0.003	0.003	0.006
419.00	0.000	0.009	0.003	0.003	0.002	0.008	0.006	0.002	0.003	0.006	0.002	0.002	0.002	0.005
420.00	0.000	0.009	0.003	0.003	0.002	0.008	0.006	0.002	0.003	0.006	0.002	0.002	0.003	0.005
421.00	0.000	0.009	0.004	0.003	0.002	0.008	0.006	0.002	0.003	0.006	0.002	0.003	0.003	0.005
422.00	0.000	0.009	0.004	0.003	0.002	0.008	0.006	0.002	0.003	0.006	0.002	0.002	0.003	0.005
423.00	0.000	0.009	0.004	0.003	0.002	0.008	0.006	0.002	0.003	0.006	0.002	0.002	0.002	0.005
424.00	0.000	0.009	0.003	0.003	0.002	0.008	0.006	0.002	0.003	0.006	0.002	0.002	0.003	0.005
425.00	0.000	0.009	0.004	0.003	0.002	0.008	0.006	0.002	0.003	0.006	0.003	0.002	0.003	0.005
426.00	0.000	0.009	0.003	0.003	0.002	0.007	0.006	0.002	0.003	0.006	0.002	0.002	0.002	0.005
427.00	0.000	0.009	0.003	0.003	0.002	0.007	0.006	0.002	0.003	0.005	0.002	0.002	0.002	0.005
428.00	0.000	0.008	0.003	0.003	0.002	0.007	0.006	0.002	0.003	0.005	0.002	0.002	0.002	0.005
429.00	0.000	0.008	0.003	0.003	0.002	0.007	0.006	0.002	0.003	0.005	0.002	0.002	0.002	0.005
430.00	0.000	0.008	0.003	0.003	0.002	0.007	0.006	0.002	0.003	0.005	0.002	0.002	0.002	0.005
431.00	0.000	0.008	0.003	0.003	0.002	0.007	0.006	0.002	0.003	0.005	0.002	0.002	0.002	0.005
432.00	0.000	0.008	0.003	0.002	0.002	0.007	0.006	0.002	0.003	0.005	0.002	0.002	0.002	0.005
433.00	0.000	0.008	0.003	0.002	0.001	0.007	0.006	0.002	0.002	0.005	0.002	0.002	0.002	0.004
434.00	0.000	0.008	0.003	0.002	0.001	0.007	0.006	0.002	0.002	0.005	0.002	0.002	0.002	0.004
435.00	0.000	0.008	0.003	0.002	0.002	0.007	0.006	0.002	0.002	0.005	0.002	0.002	0.002	0.004
436.00	0.000	0.008	0.003	0.002	0.002	0.007	0.006	0.002	0.002	0.005	0.002	0.002	0.002	0.004
437.00	0.000	0.007	0.003	0.002	0.001	0.007	0.005	0.002	0.002	0.005	0.002	0.002	0.002	0.004
438.00	0.000	0.007	0.003	0.002	0.001	0.006	0.005	0.002	0.002	0.005	0.002	0.002	0.002	0.004
439.00	0.000	0.007	0.003	0.002	0.001	0.006	0.005	0.002	0.002	0.005	0.002	0.002	0.002	0.004
440.00	0.000	0.007	0.003	0.002	0.001	0.006	0.005	0.002	0.002	0.005	0.002	0.002	0.002	0.004
441.00	-0.000	0.007	0.003	0.002	0.001	0.006	0.005	0.002	0.002	0.005	0.002	0.002	0.002	0.004
442.00	-0.000	0.007	0.003	0.002	0.001	0.006	0.005	0.002	0.002	0.005	0.002	0.002	0.002	0.004
443.00	0.000	0.007	0.003	0.002	0.001	0.006	0.005	0.002	0.002	0.005	0.002	0.002	0.002	0.004
444.00	0.000	0.007	0.003	0.002	0.001	0.006	0.005	0.002	0.002	0.004	0.002	0.002	0.002	0.004
445.00	0.000	0.007	0.003	0.002	0.001	0.006	0.005	0.002	0.002	0.004	0.002	0.002	0.002	0.004
446.00	0.000	0.007	0.003	0.002	0.001	0.006	0.005	0.002	0.002	0.004	0.002	0.002	0.002	0.003
447.00	0.000	0.007	0.003	0.002	0.001	0.006	0.005	0.002	0.002	0.004	0.002	0.002	0.002	0.003
448.00	0.000	0.007	0.003	0.002	0.001	0.006	0.005	0.002	0.002	0.004	0.002	0.002	0.002	0.003
449.00	0.000	0.007	0.003	0.002	0.001	0.006	0.005	0.002	0.002	0.004	0.002	0.002	0.002	0.003
450.00	0.000	0.007	0.003	0.002	0.001	0.006	0.005	0.002	0.002	0.004	0.002	0.002	0.002	0.003
451.00	0.000	0.007	0.003	0.002	0.001	0.006	0.005	0.002	0.002	0.004	0.002	0.002	0.002	0.003
452.00	0.000	0.007	0.003	0.002	0.001	0.006	0.005	0.001	0.002	0.004	0.002	0.002	0.002	0.003
453.00	0.000	0.006	0.003	0.002	0.001	0.005	0.005	0.001	0.002	0.004	0.002	0.002	0.002	0.003
454.00	0.000	0.006	0.003	0.002	0.001	0.005	0.005	0.001	0.002	0.004	0.002	0.002	0.002	0.003
455.00	0.000	0.006	0.003	0.002	0.001	0.006	0.005	0.001	0.002	0.004	0.002	0.002	0.002	0.003
456.00	0.000	0.006	0.003	0.002	0.001	0.005	0.005	0.002	0.002	0.004	0.002	0.002	0.002	0.003
457.00	0.000	0.006	0.003	0.002	0.001	0.005	0.005	0.001	0.002	0.004	0.002	0.002	0.002	0.003
458.00	0.000	0.006	0.003	0.002	0.001	0.005	0.005	0.001	0.002	0.004	0.002	0.002	0.002	0.003
459.00	0.000	0.006	0.003	0.002	0.001	0.005	0.005	0.001	0.002	0.004	0.001	0.002	0.002	0.003
460.00	0.000	0.006	0.003	0.002	0.001	0.005	0.005	0.001	0.002	0.004	0.002	0.002	0.002	0.003
461.00	0.000	0.006	0.003	0.002	0.001	0.005	0.005	0.001	0.002	0.004	0.002	0.002	0.002	0.003
462.00	0.000	0.006	0.003	0.002	0.001	0.005	0.005	0.001	0.002	0.004	0.002	0.002	0.002	0.003
463.00	0.000	0.006	0.003	0.002	0.001	0.005	0.005	0.001	0.002	0.004	0.002	0.002	0.002	0.003
464.00	0.000	0.006	0.003	0.002	0.001	0.005	0.005	0.001	0.002	0.004	0.002	0.002	0.002	0.003
465.00	0.000	0.006	0.002	0.002	0.001	0.005	0.005	0.001	0.002	0.003	0.001	0.001	0.001	0.003
466.00	0.000	0.006	0.002	0.002	0.001	0.005	0.005	0.001	0.002	0.003	0.001	0.001	0.001	0.003
467.00	0.000	0.006	0.002	0.002	0.001	0.005	0.005	0.001	0.002	0.003	0.001	0.001	0.001	0.002
468.00	0.000	0.006	0.002	0.001	0.001	0.005	0.004	0.001	0.002	0.003	0.001	0.001	0.001	0.002
469.00	0.000	0.006	0.002	0.002	0.001	0.005	0.004	0.001	0.002	0.003	0.001	0.001	0.001	0.002
470.00	0.000	0.006	0.002	0.002	0.001	0.005	0.005	0.001	0.002	0.003	0.001	0.001	0.001	0.002
471.00	0.000	0.006	0.002	0.002	0.001	0.005	0.005	0.001	0.002	0.003	0.001	0.001	0.001	0.002
472.00	0.000	0.006	0.002	0.002	0.001	0.005	0.004	0.001	0.002	0.003	0.001	0.001	0.001	0.002
473.00	0.000	0.006	0.003	0.002	0.001	0.005	0.004	0.001	0.002	0.003	0.001	0.001	0.001	0.002
474.00	0.000	0.005	0.002	0.001	0.001	0.005	0.004	0.001	0.002	0.003	0.001	0.001	0.001	0.002
475.00	0.000	0.005	0.002	0.001	0.001	0.004	0.004	0.001	0.001	0.003	0.001	0.001	0.001	0.002
476.00	0.000	0.005	0.002	0.001	0.001	0.005	0.004	0.001	0.002	0.003	0.001	0.001	0.001	0.002
477.00	0.000	0.005	0.002	0.001	0.001	0.004	0.004	0.001	0.002	0.003	0.001	0.001	0.001	0.002
478.00	0.000	0.005	0.002	0.001	0.001	0.004	0.004	0.001	0.001	0.003	0.001	0.001	0.001	0.002
479.00	0.000	0.005	0.002	0.001	0.001	0.004	0.004	0.001	0.002	0.003	0.001	0.001	0.001	0.002
480.00	0.000	0.005	0.002	0.001	0.001	0.004	0.004	0.001	0.002	0.003	0.001	0.001	0.001	0.002
481.00	-0.000	0.005	0.002	0.001	0.001	0.004	0.004	0.001	0.001	0.003	0.001	0.001	0.001	0.002
482.00	-0.000	0.005	0.002	0.001	0.001	0.004	0.004	0.001	0.001	0.003	0.001	0.001	0.001	0.002
483.00	-0.000	0.005	0.002	0.001	0.001	0.004	0.004	0.001	0.001	0.003	0.001	0.001	0.001	0.002
484.00	-0.000	0.005	0.002	0.001	0.001	0.004	0.004	0.001	0.001	0.003	0.001	0.001	0.001	0.002
485.00	-0.000	0.005	0.002	0.001	0.001	0.004	0.004	0.001	0.001	0.003	0.001	0.001	0.001	0.002
486.00	-0.000	0.005	0.002	0.001	0.001	0.004	0.004	0.001	0.001	0.003	0.001	0.001	0.001	0.002
487.00	0.000	0.005	0.002	0.001	0.001	0.004	0.004	0.001	0.001	0.003	0.001	0.001	0.001	0.002
488.00	-0.000	0.005	0.002	0.001	0.001	0.004	0.004	0.001	0.001	0.003	0.001	0.001	0.001	0.002
489.00	-0.000	0.005	0.002	0.001	0.001	0.004	0.004	0.001	0.001	0.003	0.001	0.001	0.001	0.002
490.00	-0.000	0.005	0.002	0.001	0.001	0.004	0.004	0.001	0.001	0.003	0.001	0.001	0.001	0.002
491.00	-0.000	0.005	0.002	0.001	0.001	0.004	0.004	0.001	0.001	0.003	0.001	0.001	0.001	0.002
492.00	-0.000	0.005	0.002	0.001	0.001	0.004	0.004	0.001	0.001	0.003	0.001	0.001	0.001	0.002
493.00	-0.000	0.005	0.002	0.001	0.001	0.004	0.004	0.001	0.001	0.003	0.001	0.001	0.001	0.002
494.00	-0.000	0.005	0.002	0.001	0.001	0.004	0.004	0.001	0.001	0.003	0.001	0.001	0.001	0.002
495.00	-0.000	0.005	0.002	0.001	0.001	0.004	0.004	0.001	0.001	0.003	0.001	0.001	0.001	0.002
496.00	-0.000	0.005	0.002	0.001	0.001	0.004	0.004	0.001	0.001	0.003	0.001	0.001	0.001	0.002
497.00	-0.000	0.005	0.002	0.001	0.001	0.004	0.004	0.001	0.001	0.003	0.001	0.001	0.001	0.002
498.00	-0.000	0.005	0.002	0.001	0.001	0.004	0.004	0.001	0.001	0.003	0.001	0.001	0.001	0.002
499.00	-0.000	0.005	0.002	0.001	0.001	0.004	0.004	0.001	0.001	0.003	0.001	0.001	0.001	0.002
500.00	0.000	0.005	0.002	0.001	0.001	0.004	0.004	0.001	0.001	0.003	0.001	0.001	0.001	0.002
501.00	0.000	0.005	0.002	0.001	0.001	0.004	0.004	0.001	0.001	0.003	0.001	0.001	0.001	0.002
502.00	-0.000	0.005	0.002	0.001	0.001	0.004	0.004	0.001	0.001	0.003	0.001	0.001	0.001	0.002
503.00	-0.000	0.005	0.002	0.001	0.001	0.004	0.004	0.001	0.001	0.002	0.001	0.001	0.001	0.002
504.00	0.000	0.005	0.002	0.001	0.001	0.004	0.004	0.001	0.001	0.003	0.001	0.001	0.001	0.002
505.00	0.000	0.005	0.002	0.001	0.001	0.004	0.004	0.001	0.001	0.003	0.001	0.001	0.001	0.002
506.00	0.000	0.005	0.002	0.001	0.001	0.004	0.004	0.001	0.001	0.003	0.001	0.001	0.001	0.002
507.00	0.000	0.005	0.002	0.001	0.001	0.004	0.004	0.001	0.001	0.003	0.001	0.001	0.001	0.002
508.00	0.000	0.005	0.002	0.001	0.001	0.004	0.004	0.001	0.001	0.003	0.001	0.001	0.001	0.002
509.00	0.000	0.005	0.002	0.001	0.001	0.004	0.004	0.001	0.001	0.002	0.001	0.001	0.001	0.002
510.00	0.000	0.004	0.002	0.001	0.001	0.003	0.004	0.001	0.001	0.002	0.001	0.001	0.001	0.001
511.00	0.000	0.004	0.002	0.001	0.001	0.003	0.004	0.001	0.001	0.002	0.001	0.001	0.001	0.001
512.00	0.000	0.005	0.002	0.001	0.001	0.004	0.004	0.001	0.001	0.002	0.001	0.001	0.001	0.002
513.00	0.000	0.004	0.002	0.001	0.001	0.003	0.004	0.001	0.001	0.002	0.001	0.001	0.001	0.001
514.00	0.000	0.004	0.002	0.001	0.001	0.003	0.004	0.001	0.001	0.002	0.001	0.001	0.001	0.001
515.00	0.000	0.004	0.002	0.001	0.001	0.003	0.004	0.001	0.001	0.002	0.001	0.001	0.001	0.001
516.00	0.000	0.004	0.002	0.001	0.001	0.003	0.004	0.001	0.001	0.002	0.001	0.001	0.001	0.001
517.00	0.000	0.004	0.002	0.001	0.001	0.003	0.004	0.001	0.001	0.002	0.001	0.001	0.001	0.001
518.00	0.000	0.004	0.002	0.001	0.001	0.003	0.004	0.001	0.001	0.002	0.001	0.001	0.001	0.001
519.00	0.000	0.004	0.002	0.001	0.001	0.003	0.004	0.001	0.001	0.002	0.001	0.001	0.001	0.001
520.00	0.000	0.004	0.002	0.001	0.001	0.003	0.004	0.001	0.001	0.002	0.001	0.001	0.001	0.001
521.00	0.000	0.004	0.002	0.001	0.001	0.003	0.004	0.001	0.001	0.002	0.001	0.001	0.001	0.001
522.00	0.000	0.004	0.002	0.001	0.001	0.003	0.004	0.001	0.001	0.002	0.001	0.001	0.001	0.001
523.00	-0.000	0.004	0.002	0.001	0.001	0.003	0.004	0.001	0.001	0.002	0.001	0.001	0.001	0.001
524.00	-0.000	0.004	0.002	0.001	0.000	0.003	0.004	0.001	0.001	0.002	0.001	0.001	0.001	0.001
525.00	-0.000	0.004	0.002	0.001	0.000	0.003	0.004	0.001	0.001	0.002	0.001	0.001	0.001	0.001
526.00	0.000	0.004	0.002	0.001	0.001	0.003	0.004	0.001	0.001	0.002	0.001	0.001	0.001	0.001
527.00	0.000	0.004	0.002	0.001	0.001	0.003	0.004	0.001	0.001	0.002	0.001	0.001	0.001	0.001
528.00	0.000	0.004	0.002	0.001	0.001	0.003	0.004	0.001	0.001	0.002	0.001	0.001	0.001	0.001
529.00	-0.000	0.004	0.002	0.001	0.001	0.003	0.004	0.001	0.001	0.002	0.001	0.001	0.001	0.001
530.00	-0.000	0.004	0.002	0.001	0.000	0.003	0.004	0.001	0.001	0.002	0.001	0.001	0.001	0.001
531.00	-0.000	0.004	0.002	0.001	0.000	0.003	0.003	0.001	0.001	0.002	0.001	0.001	0.001	0.001
532.00	-0.000	0.004	0.002	0.001	0.000	0.003	0.003	0.001	0.001	0.002	0.001	0.001	0.001	0.001
533.00	-0.000	0.004	0.002	0.001	0.000	0.003	0.003	0.001	0.001	0.002	0.001	0.001	0.001	0.001
534.00	-0.000	0.004	0.002	0.001	0.000	0.003	0.003	0.001	0.001	0.002	0.001	0.001	0.001	0.001
535.00	0.000	0.004	0.002	0.001	0.001	0.003	0.004	0.001	0.001	0.002	0.001	0.001	0.001	0.001
536.00	0.001	0.005	0.003	0.002	0.001	0.004	0.004	0.002	0.002	0.003	0.002	0.002	0.002	0.002
537.00	0.000	0.004	0.002	0.001	0.001	0.003	0.004	0.001	0.001	0.002	0.001	0.001	0.001	0.001
538.00	-0.000	0.004	0.002	0.001	0.001	0.003	0.003	0.001	0.001	0.002	0.001	0.001	0.001	0.001
539.00	-0.000	0.004	0.002	0.001	0.000	0.003	0.003	0.000	0.001	0.002	0.001	0.001	0.001	0.001
540.00	-0.000	0.004	0.002	0.001	0.000	0.003	0.003	0.000	0.001	0.002	0.001	0.001	0.001	0.001
541.00	-0.000	0.004	0.002	0.001	0.001	0.003	0.003	0.001	0.001	0.002	0.001	0.001	0.001	0.001
542.00	-0.000	0.004	0.002	0.001	0.000	0.003	0.003	0.001	0.001	0.002	0.001	0.001	0.001	0.001
543.00	-0.000	0.004	0.002	0.001	0.001	0.003	0.003	0.001	0.001	0.002	0.001	0.001	0.001	0.001
544.00	-0.000	0.004	0.002	0.001	0.001	0.003	0.003	0.001	0.001	0.002	0.001	0.001	0.001	0.001
545.00	-0.000	0.003	0.002	0.001	0.001	0.003	0.003	0.000	0.001	0.002	0.001	0.001	0.001	0.001
546.00	-0.000	0.003	0.002	0.001	0.000	0.003	0.003	0.001	0.001	0.002	0.001	0.001	0.001	0.001
547.00	-0.000	0.003	0.002	0.001	0.000	0.003	0.003	0.000	0.001	0.002	0.001	0.001	0.001	0.001
548.00	-0.000	0.004	0.002	0.001	0.000	0.003	0.003	0.000	0.001	0.002	0.000	0.001	0.001	0.001
549.00	-0.000	0.003	0.002	0.001	0.000	0.003	0.003	0.000	0.001	0.002	0.000	0.001	0.001	0.001
550.00	-0.000	0.003	0.002	0.001	0.000	0.003	0.003	0.000	0.001	0.002	0.001	0.001	0.001	0.001
551.00	-0.000	0.003	0.002	0.001	0.000	0.003	0.003	0.000	0.001	0.002	0.001	0.001	0.001	0.001
552.00	-0.000	0.003	0.002	0.001	0.000	0.003	0.003	0.001	0.001	0.002	0.001	0.001	0.001	0.001
553.00	-0.000	0.003	0.002	0.001	0.000	0.003	0.003	0.001	0.001	0.002	0.001	0.001	0.001	0.001
554.00	-0.000	0.003	0.002	0.001	0.000	0.003	0.003	0.001	0.001	0.002	0.001	0.001	0.001	0.001
555.00	-0.000	0.003	0.002	0.001	0.000	0.003	0.003	0.001	0.001	0.002	0.001	0.001	0.001	0.001
556.00	-0.000	0.003	0.002	0.001	0.000	0.003	0.003	0.001	0.001	0.002	0.001	0.001	0.001	0.001
557.00	-0.000	0.003	0.002	0.001	0.000	0.003	0.003	0.001	0.001	0.002	0.001	0.001	0.001	0.001
558.00	-0.000	0.003	0.002	0.001	0.000	0.003	0.003	0.001	0.001	0.002	0.000	0.001	0.001	0.001
559.00	-0.000	0.003	0.002	0.001	0.000	0.003	0.003	0.000	0.001	0.002	0.001	0.000	0.001	0.001
560.00	-0.000	0.003	0.002	0.001	0.000	0.003	0.003	0.000	0.001	0.002	0.001	0.001	0.001	0.001
561.00	-0.000	0.003	0.002	0.001	0.000	0.002	0.003	0.000	0.001	0.002	0.001	0.001	0.001	0.001
562.00	-0.000	0.003	0.002	0.001	0.000	0.002	0.003	0.001	0.001	0.002	0.001	0.001	0.001	0.001
563.00	-0.000	0.003	0.002	0.001	0.000	0.002	0.003	0.000	0.001	0.002	0.000	0.001	0.001	0.001
564.00	-0.000	0.003	0.002	0.001	0.000	0.002	0.003	0.000	0.001	0.002	0.001	0.001	0.001	0.001
565.00	-0.000	0.003	0.002	0.001	0.000	0.003	0.003	0.000	0.001	0.002	0.001	0.001	0.001	0.001
566.00	0.000	0.003	0.002	0.001	0.001	0.003	0.003	0.001	0.001	0.002	0.001	0.001	0.001	0.001
567.00	0.000	0.003	0.002	0.001	0.000	0.002	0.003	0.000	0.001	0.002	0.001	0.001	0.001	0.001
568.00	-0.000	0.003	0.002	0.001	0.000	0.002	0.003	0.000	0.001	0.002	0.001	0.001	0.001	0.001
569.00	-0.000	0.003	0.002	0.001	0.000	0.002	0.003	0.000	0.001	0.002	0.001	0.001	0.001	0.001
570.00	0.000	0.003	0.002	0.001	0.000	0.002	0.003	0.000	0.001	0.002	0.001	0.001	0.001	0.001
571.00	0.000	0.003	0.002	0.001	0.000	0.002	0.003	0.000	0.001	0.002	0.001	0.001	0.001	0.001
572.00	-0.000	0.003	0.001	0.001	0.000	0.002	0.003	0.000	0.001	0.002	0.001	0.001	0.001	0.001
573.00	-0.000	0.003	0.002	0.001	0.000	0.002	0.003	0.000	0.001	0.002	0.001	0.001	0.001	0.001
574.00	-0.000	0.003	0.001	0.001	0.000	0.002	0.003	0.000	0.001	0.001	0.001	0.001	0.001	0.001
575.00	-0.000	0.003	0.001	0.001	0.000	0.002	0.003	0.000	0.001	0.001	0.001	0.001	0.001	0.001
576.00	-0.000	0.003	0.002	0.001	0.000	0.002	0.003	0.000	0.001	0.002	0.001	0.001	0.001	0.001
577.00	0.000	0.003	0.002	0.001	0.000	0.002	0.003	0.000	0.001	0.002	0.001	0.001	0.001	0.001
578.00	0.000	0.003	0.002	0.001	0.000	0.002	0.003	0.000	0.001	0.002	0.001	0.001	0.001	0.001
579.00	0.000	0.003	0.002	0.001	0.000	0.002	0.003	0.000	0.001	0.002	0.001	0.001	0.001	0.001
580.00	0.000	0.003	0.002	0.001	0.000	0.002	0.003	0.000	0.001	0.002	0.001	0.001	0.001	0.001
581.00	-0.000	0.003	0.002	0.001	0.000	0.002	0.003	0.000	0.001	0.002	0.001	0.001	0.001	0.001
582.00	0.000	0.003	0.002	0.001	0.000	0.002	0.003	0.000	0.001	0.002	0.001	0.001	0.001	0.001
583.00	0.000	0.003	0.002	0.001	0.000	0.002	0.003	0.000	0.001	0.002	0.001	0.001	0.001	0.001
584.00	0.000	0.003	0.002	0.001	0.000	0.002	0.003	0.000	0.001	0.002	0.001	0.001	0.001	0.001
585.00	0.000	0.003	0.002	0.001	0.000	0.002	0.003	0.000	0.001	0.002	0.001	0.001	0.001	0.001
586.00	0.000	0.003	0.002	0.001	0.000	0.002	0.003	0.000	0.001	0.002	0.001	0.001	0.001	0.001
587.00	0.000	0.003	0.002	0.001	0.000	0.002	0.003	0.000	0.001	0.002	0.001	0.001	0.001	0.001
588.00	0.000	0.003	0.001	0.001	0.000	0.002	0.003	0.000	0.001	0.002	0.001	0.001	0.001	0.001
589.00	0.000	0.003	0.001	0.001	0.000	0.002	0.003	0.000	0.001	0.001	0.001	0.001	0.001	0.001
590.00	0.000	0.003	0.001	0.001	0.000	0.002	0.003	0.000	0.001	0.001	0.001	0.001	0.001	0.000
591.00	0.000	0.003	0.001	0.001	0.000	0.002	0.003	0.000	0.001	0.002	0.001	0.001	0.001	0.001
592.00	0.000	0.003	0.002	0.001	0.000	0.002	0.003	0.000	0.001	0.002	0.001	0.001	0.001	0.001
593.00	0.000	0.003	0.002	0.001	0.000	0.002	0.003	0.000	0.001	0.002	0.001	0.001	0.001	0.001
594.00	-0.000	0.003	0.001	0.001	0.000	0.002	0.003	0.000	0.001	0.001	0.001	0.001	0.001	0.001
595.00	-0.000	0.003	0.002	0.001	0.000	0.002	0.003	0.000	0.001	0.001	0.001	0.001	0.001	0.001
596.00	-0.000	0.003	0.002	0.001	0.000	0.002	0.003	0.000	0.001	0.001	0.001	0.001	0.001	0.000
597.00	-0.000	0.003	0.001	0.001	0.000	0.002	0.003	0.000	0.001	0.001	0.000	0.001	0.001	0.000
598.00	-0.000	0.003	0.001	0.001	0.000	0.002	0.003	0.000	0.001	0.001	0.000	0.000	0.001	0.000
599.00	-0.000	0.003	0.001	0.001	0.000	0.002	0.003	0.000	0.001	0.001	0.000	0.001	0.001	0.000
600.00	-0.000	0.003	0.002	0.001	0.000	0.002	0.003	0.000	0.001	0.001	0.000	0.001	0.001	0.001
601.00	-0.000	0.003	0.002	0.001	0.000	0.002	0.003	0.000	0.001	0.001	0.001	0.001	0.001	0.001
602.00	0.000	0.003	0.002	0.001	0.000	0.002	0.003	0.000	0.001	0.002	0.001	0.001	0.001	0.001
603.00	-0.000	0.003	0.001	0.001	0.000	0.002	0.003	0.000	0.001	0.002	0.000	0.001	0.001	0.001
604.00	-0.000	0.003	0.001	0.001	0.000	0.002	0.003	0.000	0.001	0.001	0.000	0.000	0.001	0.000
605.00	-0.000	0.003	0.001	0.001	0.000	0.002	0.003	0.000	0.001	0.001	0.000	0.000	0.001	0.000
606.00	-0.000	0.003	0.001	0.001	0.000	0.002	0.003	0.000	0.001	0.001	0.000	0.001	0.001	0.000
607.00	-0.000	0.003	0.001	0.001	0.000	0.002	0.003	0.000	0.001	0.001	0.000	0.000	0.001	0.000
608.00	-0.000	0.003	0.001	0.001	0.000	0.002	0.003	0.000	0.001	0.001	0.000	0.000	0.000	0.000
609.00	-0.000	0.003	0.001	0.001	0.000	0.002	0.003	0.000	0.001	0.001	0.000	0.000	0.001	0.000
610.00	-0.000	0.003	0.001	0.001	0.000	0.002	0.003	0.000	0.001	0.001	0.000	0.000	0.001	0.000
611.00	-0.000	0.003	0.001	0.001	0.000	0.002	0.003	0.000	0.001	0.001	0.000	0.000	0.001	0.000
612.00	-0.000	0.003	0.001	0.001	0.000	0.002	0.003	0.000	0.001	0.001	0.000	0.000	0.001	0.000
613.00	-0.000	0.003	0.001	0.001	0.000	0.002	0.003	0.000	0.001	0.001	0.000	0.000	0.000	0.000
614.00	-0.000	0.003	0.001	0.001	0.000	0.002	0.003	0.000	0.000	0.001	0.000	0.000	0.000	0.000
615.00	-0.000	0.003	0.001	0.001	0.000	0.002	0.003	0.000	0.001	0.001	0.000	0.000	0.000	0.000
616.00	-0.000	0.003	0.001	0.001	0.000	0.002	0.003	0.000	0.001	0.001	0.000	0.000	0.001	0.000
617.00	-0.000	0.003	0.001	0.001	0.000	0.002	0.003	0.000	0.001	0.001	0.000	0.000	0.001	0.001
618.00	-0.000	0.003	0.002	0.001	0.000	0.002	0.003	0.000	0.001	0.001	0.000	0.000	0.001	0.001
619.00	-0.000	0.003	0.001	0.001	0.000	0.002	0.003	0.000	0.001	0.001	0.000	0.000	0.001	0.001
620.00	-0.000	0.003	0.001	0.001	0.000	0.002	0.003	0.000	0.001	0.001	0.000	0.000	0.001	0.000
621.00	-0.000	0.003	0.001	0.001	0.000	0.002	0.003	0.000	0.001	0.001	0.000	0.000	0.000	0.000
622.00	-0.000	0.003	0.001	0.001	0.000	0.002	0.003	0.000	0.001	0.001	0.000	0.000	0.001	0.000
623.00	-0.000	0.003	0.001	0.001	0.000	0.002	0.003	0.000	0.001	0.001	0.000	0.000	0.001	0.000
624.00	-0.000	0.003	0.001	0.001	0.000	0.002	0.003	0.000	0.001	0.001	0.000	0.000	0.000	0.000
625.00	-0.000	0.003	0.001	0.001	0.000	0.002	0.003	0.000	0.000	0.001	0.000	0.000	0.001	0.000
626.00	-0.000	0.003	0.001	0.001	0.000	0.002	0.003	0.000	0.001	0.001	0.000	0.000	0.001	0.000
627.00	-0.000	0.003	0.001	0.001	0.000	0.002	0.003	0.000	0.001	0.001	0.000	0.000	0.001	0.000
628.00	-0.000	0.003	0.001	0.001	0.000	0.002	0.003	0.000	0.001	0.001	0.000	0.000	0.001	0.000
629.00	-0.000	0.003	0.001	0.001	0.000	0.002	0.003	0.000	0.001	0.001	0.000	0.000	0.001	0.000
630.00	-0.000	0.003	0.001	0.001	0.000	0.002	0.003	0.000	0.001	0.001	0.000	0.000	0.001	0.000
631.00	-0.000	0.003	0.001	0.001	0.000	0.002	0.003	0.000	0.001	0.001	0.000	0.000	0.000	0.000
632.00	-0.000	0.003	0.001	0.001	0.000	0.002	0.003	0.000	0.001	0.001	0.000	0.000	0.001	0.000
633.00	-0.000	0.003	0.001	0.001	0.000	0.002	0.003	0.000	0.001	0.001	0.000	0.000	0.001	0.000
634.00	-0.000	0.003	0.001	0.001	0.000	0.002	0.003	0.000	0.001	0.001	0.000	0.000	0.001	0.000
635.00	-0.000	0.003	0.001	0.001	0.000	0.002	0.003	0.000	0.001	0.001	0.000	0.000	0.001	0.000
636.00	-0.000	0.003	0.001	0.001	0.000	0.002	0.003	0.000	0.000	0.001	0.000	0.000	0.000	0.000
637.00	-0.000	0.003	0.001	0.000	0.000	0.002	0.003	0.000	0.000	0.001	0.000	0.000	0.000	0.000
638.00	-0.000	0.003	0.001	0.001	0.000	0.002	0.003	0.000	0.001	0.001	0.000	0.000	0.000	0.000
639.00	-0.000	0.003	0.001	0.000	0.000	0.002	0.003	0.000	0.000	0.001	0.000	0.000	0.000	0.000
640.00	-0.000	0.003	0.001	0.000	0.000	0.002	0.002	0.000	0.000	0.001	0.000	0.000	0.000	0.000
641.00	-0.000	0.003	0.001	0.000	0.000	0.002	0.002	0.000	0.000	0.001	0.000	0.000	0.000	0.000
642.00	-0.000	0.003	0.001	0.001	0.000	0.002	0.003	0.000	0.000	0.001	0.000	0.000	0.000	0.000
643.00	-0.000	0.003	0.001	0.001	0.000	0.002	0.003	0.000	0.000	0.001	0.000	0.000	0.000	0.000
644.00	-0.000	0.003	0.001	0.001	0.000	0.002	0.003	0.000	0.000	0.001	0.000	0.000	0.000	0.000
645.00	-0.000	0.003	0.001	0.000	0.000	0.002	0.003	0.000	0.000	0.001	0.000	0.000	0.000	0.000
646.00	-0.000	0.003	0.001	0.000	0.000	0.002	0.003	0.000	0.000	0.001	0.000	0.000	0.000	0.000
647.00	-0.000	0.003	0.001	0.000	0.000	0.002	0.003	0.000	0.000	0.001	0.000	0.000	0.000	0.000
648.00	-0.000	0.003	0.001	0.001	0.000	0.002	0.003	0.000	0.001	0.001	0.000	0.000	0.001	0.000
649.00	-0.000	0.003	0.001	0.001	0.000	0.002	0.003	0.000	0.001	0.001	0.000	0.000	0.001	0.000
650.00	-0.000	0.003	0.001	0.001	0.000	0.002	0.003	0.000	0.001	0.001	0.000	0.000	0.001	0.000
651.00	-0.000	0.003	0.001	0.001	0.000	0.002	0.003	0.000	0.001	0.001	0.000	0.000	0.001	0.000
652.00	-0.000	0.003	0.001	0.001	0.000	0.002	0.003	0.000	0.001	0.001	0.000	0.000	0.001	0.000
653.00	-0.000	0.003	0.001	0.001	0.000	0.002	0.003	0.000	0.001	0.001	0.000	0.000	0.001	0.000
654.00	-0.000	0.003	0.001	0.001	0.000	0.002	0.003	0.000	0.001	0.001	0.000	0.000	0.001	0.000
655.00	-0.000	0.003	0.001	0.001	0.000	0.002	0.003	0.000	0.001	0.001	0.001	0.000	0.001	0.000
656.00	-0.000	0.003	0.001	0.001	0.000	0.002	0.003	0.000	0.001	0.001	0.001	0.001	0.001	0.000
657.00	-0.000	0.003	0.001	0.001	0.000	0.002	0.003	0.000	0.001	0.001	0.001	0.001	0.001	0.000
658.00	-0.000	0.003	0.001	0.001	0.000	0.002	0.003	0.000	0.001	0.001	0.000	0.000	0.001	0.000
659.00	-0.000	0.003	0.001	0.001	0.000	0.002	0.003	0.000	0.001	0.001	0.000	0.000	0.001	0.000
660.00	-0.000	0.003	0.001	0.001	0.000	0.002	0.002	0.000	0.000	0.001	0.000	0.000	0.001	0.000
661.00	-0.000	0.003	0.001	0.001	0.000	0.002	0.003	0.000	0.001	0.001	0.000	0.000	0.001	0.000
662.00	-0.000	0.003	0.001	0.001	0.000	0.002	0.002	0.000	0.001	0.001	0.000	0.000	0.001	0.000
663.00	0.000	0.003	0.001	0.001	0.000	0.002	0.003	0.000	0.001	0.001	0.000	0.000	0.001	0.000
664.00	-0.000	0.003	0.001	0.001	0.000	0.002	0.002	0.000	0.000	0.001	0.000	0.000	0.001	0.000
665.00	-0.000	0.003	0.001	0.000	0.000	0.002	0.002	0.000	0.000	0.001	0.000	0.000	0.000	0.000
666.00	-0.000	0.003	0.001	0.001	0.000	0.001	0.002	0.000	0.000	0.001	0.000	0.000	0.001	0.000
667.00	-0.000	0.003	0.001	0.001	0.000	0.002	0.002	0.000	0.000	0.001	0.000	0.000	0.001	0.000
668.00	-0.000	0.003	0.001	0.001	0.000	0.002	0.003	0.000	0.000	0.001	0.000	0.000	0.000	0.000
669.00	-0.000	0.003	0.001	0.001	0.000	0.002	0.003	0.000	0.001	0.001	0.000	0.000	0.001	0.000
670.00	-0.000	0.003	0.001	0.001	0.000	0.002	0.002	0.000	0.001	0.001	0.000	0.000	0.001	0.000
671.00	-0.000	0.003	0.001	0.001	0.000	0.002	0.003	0.000	0.001	0.001	0.000	0.000	0.001	0.000
672.00	-0.000	0.003	0.001	0.001	0.000	0.002	0.003	0.000	0.001	0.001	0.000	0.000	0.001	0.000
673.00	-0.000	0.003	0.001	0.001	0.000	0.002	0.002	0.000	0.001	0.001	0.001	0.000	0.001	0.000
674.00	-0.000	0.003	0.001	0.001	0.000	0.002	0.003	0.000	0.000	0.001	0.001	0.000	0.001	0.000
675.00	-0.000	0.003	0.001	0.001	0.000	0.002	0.003	0.000	0.001	0.001	0.001	0.000	0.001	0.000
676.00	0.000	0.003	0.001	0.001	0.000	0.002	0.003	0.000	0.001	0.001	0.001	0.001	0.001	0.001
677.00	-0.000	0.003	0.001	0.001	0.000	0.002	0.002	0.000	0.001	0.001	0.001	0.001	0.001	0.000
678.00	-0.000	0.003	0.001	0.001	0.000	0.002	0.002	0.000	0.001	0.001	0.000	0.001	0.001	0.000
679.00	-0.000	0.003	0.001	0.001	0.000	0.002	0.002	0.000	0.001	0.001	0.000	0.000	0.000	0.000
680.00	-0.000	0.003	0.001	0.001	0.000	0.002	0.002	0.000	0.001	0.001	0.000	0.000	0.001	0.000
681.00	0.000	0.003	0.001	0.001	0.000	0.002	0.003	0.000	0.001	0.001	0.000	0.000	0.001	0.000
682.00	0.000	0.003	0.001	0.001	0.000	0.002	0.002	0.000	0.001	0.001	0.000	0.000	0.001	0.000
683.00	-0.000	0.003	0.001	0.001	0.000	0.002	0.002	0.000	0.001	0.001	0.000	0.000	0.001	0.000
684.00	0.000	0.003	0.001	0.001	0.000	0.002	0.002	0.000	0.001	0.001	0.000	0.000	0.001	0.000
685.00	0.000	0.003	0.001	0.001	0.000	0.002	0.003	0.000	0.001	0.001	0.001	0.001	0.001	0.001
686.00	0.000	0.003	0.001	0.001	0.000	0.002	0.003	0.000	0.001	0.001	0.001	0.001	0.001	0.000
687.00	-0.000	0.003	0.001	0.001	0.000	0.002	0.003	0.000	0.001	0.001	0.000	0.001	0.001	0.000
688.00	-0.000	0.003	0.001	0.001	0.000	0.001	0.002	0.000	0.000	0.001	0.000	0.000	0.001	0.000
689.00	-0.000	0.003	0.001	0.001	0.000	0.002	0.002	0.000	0.001	0.001	0.000	0.000	0.001	0.000
690.00	-0.000	0.003	0.001	0.001	0.000	0.002	0.002	0.000	0.001	0.001	0.000	0.000	0.001	0.000
691.00	-0.000	0.002	0.001	0.001	0.000	0.002	0.002	0.000	0.001	0.001	0.000	0.000	0.001	0.000
692.00	-0.000	0.003	0.001	0.001	0.000	0.002	0.002	0.000	0.001	0.001	0.000	0.000	0.001	0.000
693.00	-0.000	0.002	0.001	0.001	0.000	0.001	0.002	0.000	0.001	0.001	0.000	0.000	0.001	0.000
694.00	-0.000	0.002	0.001	0.001	0.000	0.002	0.002	0.000	0.001	0.001	0.000	0.000	0.001	0.000
695.00	-0.000	0.003	0.001	0.001	0.000	0.002	0.002	0.000	0.001	0.001	0.000	0.000	0.001	0.000
696.00	-0.000	0.003	0.001	0.001	0.000	0.001	0.002	0.000	0.000	0.001	0.000	0.000	0.001	0.000
697.00	-0.000	0.003	0.001	0.001	0.000	0.002	0.002	0.000	0.001	0.001	0.000	0.000	0.001	0.000
698.00	-0.000	0.003	0.001	0.001	0.000	0.001	0.002	0.000	0.001	0.001	0.000	0.000	0.001	0.000
699.00	-0.000	0.002	0.001	0.000	0.000	0.001	0.002	0.000	0.001	0.001	0.000	0.000	0.001	0.000
700.00	-0.000	0.002	0.001	0.000	0.000	0.001	0.002	0.000	0.001	0.001	0.000	0.000	0.001	0.000
701.00	-0.000	0.002	0.001	0.000	0.000	0.002	0.002	0.000	0.001	0.001	0.000	0.000	0.000	0.000
702.00	-0.000	0.002	0.001	0.000	0.000	0.001	0.002	0.000	0.001	0.001	0.000	0.000	0.000	0.000
703.00	-0.000	0.002	0.001	0.001	0.000	0.001	0.002	0.000	0.001	0.001	0.000	0.000	0.000	0.000
704.00	-0.000	0.002	0.001	0.000	0.000	0.001	0.002	0.000	0.000	0.001	0.000	0.000	0.000	0.000
705.00	-0.000	0.002	0.001	0.000	0.000	0.001	0.002	0.000	0.000	0.001	0.000	0.000	0.000	0.000
706.00	-0.000	0.002	0.001	0.000	0.000	0.001	0.002	0.000	0.000	0.001	0.000	0.000	0.000	0.000
707.00	-0.000	0.002	0.001	0.000	0.000	0.001	0.002	0.000	0.000	0.001	0.000	0.000	0.000	0.000
708.00	-0.000	0.002	0.001	0.000	0.000	0.001	0.002	0.000	0.000	0.001	0.000	0.000	0.000	0.000
709.00	-0.000	0.002	0.001	0.000	0.000	0.001	0.002	0.000	0.000	0.001	0.000	0.000	0.001	0.000
710.00	-0.000	0.002	0.001	0.001	0.000	0.001	0.002	0.000	0.001	0.001	0.000	0.000	0.001	0.001
711.00	-0.000	0.002	0.001	0.001	0.000	0.002	0.002	0.000	0.001	0.001	0.000	0.000	0.001	0.000
712.00	-0.000	0.002	0.001	0.001	0.000	0.002	0.002	0.000	0.000	0.001	0.000	0.000	0.001	0.000
713.00	-0.000	0.002	0.001	0.001	0.000	0.001	0.002	0.000	0.000	0.001	0.000	0.000	0.001	0.000
714.00	-0.000	0.002	0.001	0.001	0.000	0.001	0.002	0.000	0.000	0.001	0.000	0.000	0.001	0.000
715.00	-0.000	0.002	0.001	0.001	0.000	0.001	0.002	0.000	0.000	0.001	0.000	0.000	0.001	0.000
716.00	-0.000	0.002	0.001	0.000	0.000	0.001	0.002	0.000	0.000	0.001	0.000	0.000	0.001	0.000
717.00	-0.000	0.002	0.001	0.000	0.000	0.001	0.002	0.000	0.001	0.001	0.000	0.000	0.001	0.000
718.00	-0.000	0.002	0.001	0.001	0.000	0.001	0.002	0.000	0.000	0.001	0.000	0.000	0.001	0.000
719.00	-0.000	0.002	0.001	0.001	0.000	0.001	0.002	0.000	0.001	0.001	0.000	0.000	0.001	0.000
720.00	-0.000	0.002	0.001	0.001	0.000	0.001	0.002	0.000	0.001	0.001	0.000	0.000	0.001	0.000
721.00	-0.000	0.002	0.001	0.001	0.000	0.001	0.002	0.000	0.001	0.001	0.000	0.000	0.001	0.000
722.00	-0.000	0.002	0.001	0.001	0.000	0.001	0.002	0.000	0.000	0.001	0.000	0.000	0.001	0.000
723.00	-0.000	0.002	0.001	0.001	0.000	0.001	0.002	0.000	0.000	0.001	0.000	0.000	0.001	0.000
724.00	-0.000	0.002	0.001	0.000	0.000	0.001	0.002	0.000	0.000	0.001	0.000	0.000	0.000	0.000
725.00	-0.000	0.002	0.001	0.000	0.000	0.001	0.002	0.000	0.000	0.001	0.000	0.000	0.000	0.000
726.00	-0.000	0.002	0.001	0.000	0.000	0.001	0.002	0.000	0.000	0.001	0.000	0.000	0.000	0.000
727.00	-0.000	0.002	0.001	0.001	0.000	0.001	0.002	0.000	0.001	0.001	0.000	0.000	0.001	0.000
728.00	-0.000	0.002	0.001	0.000	0.000	0.001	0.002	0.000	0.000	0.001	0.000	0.000	0.001	0.000
729.00	-0.000	0.002	0.001	0.000	0.000	0.001	0.002	0.000	0.000	0.001	0.000	0.000	0.000	0.000
730.00	-0.000	0.002	0.001	0.000	0.000	0.001	0.002	0.000	0.001	0.001	0.000	0.000	0.000	0.000
731.00	-0.000	0.002	0.001	0.000	0.000	0.001	0.002	0.000	0.000	0.001	0.000	0.000	0.000	0.000
732.00	-0.000	0.002	0.001	0.000	0.000	0.001	0.002	0.000	0.000	0.001	0.000	0.000	0.000	0.000
733.00	-0.000	0.002	0.001	0.000	0.000	0.001	0.002	0.000	0.000	0.001	0.000	0.000	0.000	0.000
734.00	-0.000	0.002	0.001	0.000	0.000	0.001	0.002	0.000	0.000	0.001	0.000	0.000	0.000	0.000
735.00	-0.000	0.002	0.001	0.000	0.000	0.001	0.002	0.000	0.000	0.001	0.000	0.000	0.000	0.000
736.00	-0.000	0.002	0.001	0.000	0.000	0.001	0.002	0.000	0.000	0.001	0.000	0.000	0.000	0.000
737.00	-0.000	0.002	0.001	0.000	0.000	0.001	0.002	0.000	0.000	0.001	0.000	0.000	0.000	0.000
738.00	-0.000	0.002	0.001	0.000	0.000	0.001	0.002	0.000	0.000	0.001	0.000	0.000	0.000	0.000
739.00	-0.000	0.002	0.001	0.000	0.000	0.001	0.002	0.000	0.000	0.001	0.000	0.000	0.000	0.000
740.00	-0.000	0.002	0.001	0.000	0.000	0.001	0.002	0.000	0.000	0.001	0.000	0.000	0.001	0.000
741.00	-0.000	0.002	0.001	0.000	0.000	0.001	0.002	0.000	0.000	0.001	0.000	0.000	0.000	0.000
742.00	-0.000	0.002	0.001	0.000	0.000	0.001	0.002	0.000	0.000	0.001	0.000	0.000	0.000	0.000
743.00	-0.000	0.002	0.001	0.001	0.000	0.001	0.002	0.000	0.001	0.001	0.000	0.000	0.001	0.000
744.00	-0.000	0.002	0.001	0.000	0.000	0.001	0.002	0.000	0.001	0.001	0.000	0.000	0.001	0.000
745.00	-0.000	0.002	0.001	0.001	0.000	0.001	0.002	0.000	0.001	0.001	0.000	0.000	0.001	0.000
746.00	-0.000	0.002	0.001	0.000	0.000	0.001	0.002	0.000	0.000	0.001	0.000	0.000	0.001	0.000
747.00	-0.000	0.002	0.001	0.000	0.000	0.001	0.002	0.000	0.000	0.001	0.000	0.000	0.000	0.000
748.00	-0.000	0.002	0.001	0.000	0.000	0.001	0.002	0.000	0.000	0.001	0.000	0.000	0.000	0.000
749.00	-0.000	0.002	0.001	0.000	0.000	0.001	0.002	0.000	0.000	0.001	0.000	0.000	0.000	0.000
750.00	-0.000	0.002	0.001	0.000	0.000	0.001	0.002	0.000	0.000	0.001	0.000	0.000	0.000	0.000
751.00	-0.000	0.002	0.001	0.000	0.000	0.001	0.002	0.000	0.000	0.001	0.000	0.000	0.000	0.000
752.00	-0.000	0.002	0.001	0.000	0.000	0.001	0.002	0.000	0.000	0.001	0.000	0.000	0.000	0.000
753.00	-0.000	0.002	0.001	0.000	0.000	0.001	0.002	0.000	0.000	0.001	0.000	0.000	0.000	0.000
754.00	-0.000	0.002	0.001	0.000	0.000	0.001	0.002	0.000	0.000	0.001	0.000	0.000	0.000	0.000
755.00	-0.000	0.002	0.001	0.000	0.000	0.001	0.002	0.000	0.000	0.001	0.000	0.000	0.000	0.000
756.00	-0.000	0.002	0.001	0.000	0.000	0.001	0.002	0.000	0.000	0.001	0.000	0.000	0.000	0.000
757.00	-0.000	0.002	0.001	0.000	0.000	0.001	0.002	0.000	0.000	0.001	0.000	0.000	0.000	0.000
758.00	-0.000	0.002	0.001	0.000	0.000	0.001	0.002	0.000	0.000	0.001	0.000	0.000	0.001	0.000
759.00	0.000	0.003	0.001	0.001	0.000	0.001	0.003	0.001	0.001	0.001	0.000	0.001	0.001	0.001
760.00	0.001	0.003	0.002	0.001	0.001	0.002	0.003	0.001	0.001	0.002	0.001	0.001	0.001	0.001
761.00	0.000	0.002	0.001	0.001	0.000	0.001	0.002	0.000	0.001	0.001	0.001	0.000	0.001	0.001
762.00	-0.000	0.002	0.001	0.000	0.000	0.001	0.002	0.000	0.000	0.001	0.000	0.000	0.000	0.000
763.00	-0.000	0.002	0.001	0.000	0.000	0.001	0.002	0.000	0.000	0.001	0.000	0.000	0.000	0.000
764.00	-0.000	0.002	0.001	0.000	0.000	0.001	0.002	0.000	0.000	0.001	0.000	0.000	0.000	0.000
765.00	-0.000	0.002	0.001	0.000	0.000	0.001	0.002	0.000	0.000	0.001	0.000	0.000	0.000	0.000
766.00	-0.000	0.002	0.001	0.000	0.000	0.001	0.002	0.000	0.000	0.001	0.000	0.000	0.000	0.000
767.00	-0.000	0.002	0.001	0.000	0.000	0.001	0.002	0.000	0.000	0.001	0.000	0.000	0.000	0.000
768.00	-0.000	0.002	0.001	0.000	0.000	0.001	0.002	0.000	0.000	0.001	0.000	0.000	0.000	0.000
769.00	-0.000	0.002	0.001	0.000	0.000	0.001	0.002	0.000	0.000	0.001	0.000	0.000	0.000	0.000
770.00	-0.000	0.002	0.001	0.000	0.000	0.001	0.002	0.000	0.000	0.001	0.000	0.000	0.000	0.000
771.00	-0.000	0.002	0.001	0.000	0.000	0.001	0.002	0.000	0.001	0.001	0.000	0.000	0.001	0.000
772.00	-0.000	0.002	0.001	0.000	0.000	0.001	0.002	0.000	0.001	0.001	0.000	0.000	0.001	0.000
773.00	-0.000	0.002	0.001	0.000	0.000	0.001	0.002	0.000	0.001	0.001	0.000	0.000	0.001	0.000
774.00	-0.000	0.002	0.001	0.000	0.000	0.001	0.002	0.000	0.000	0.001	0.000	0.000	0.000	0.000
775.00	0.000	0.002	0.001	0.001	0.000	0.001	0.002	0.000	0.000	0.001	0.000	0.000	0.001	0.000
776.00	0.000	0.002	0.001	0.001	0.000	0.001	0.002	0.000	0.001	0.001	0.000	0.000	0.001	0.000
777.00	0.000	0.002	0.001	0.001	0.000	0.001	0.002	0.001	0.001	0.001	0.001	0.000	0.001	0.000
778.00	0.000	0.002	0.001	0.001	0.000	0.001	0.002	0.000	0.001	0.001	0.000	0.001	0.000	0.000
779.00	-0.000	0.002	0.001	0.001	0.000	0.001	0.002	0.000	0.001	0.001	0.000	0.000	0.000	0.000
780.00	-0.000	0.002	0.001	0.000	0.000	0.001	0.002	0.000	0.001	0.001	0.000	0.000	0.000	0.000
781.00	-0.000	0.002	0.001	0.000	0.000	0.001	0.002	0.000	0.000	0.001	0.000	0.000	0.000	0.000
782.00	-0.000	0.002	0.001	0.000	0.000	0.001	0.002	0.000	0.000	0.001	0.000	0.000	0.000	0.000
783.00	-0.000	0.002	0.001	0.000	0.000	0.001	0.002	0.000	0.000	0.001	0.000	0.000	0.000	0.000
784.00	-0.000	0.002	0.001	0.000	0.000	0.001	0.002	0.000	0.000	0.001	0.000	0.000	0.000	0.000
785.00	-0.000	0.002	0.001	0.000	0.000	0.001	0.002	0.000	0.000	0.001	0.000	0.000	0.000	0.000
786.00	-0.000	0.002	0.001	0.000	0.000	0.001	0.002	0.000	0.001	0.001	0.000	0.000	0.000	0.000
787.00	-0.000	0.002	0.001	0.000	0.000	0.001	0.002	0.000	0.001	0.001	0.000	0.000	0.000	0.000
788.00	-0.000	0.002	0.001	0.000	0.000	0.001	0.002	0.000	0.001	0.001	0.000	0.000	0.000	0.000
789.00	-0.000	0.002	0.001	0.001	0.000	0.001	0.002	0.000	0.001	0.001	0.001	0.001	0.001	0.000
790.00	-0.000	0.002	0.001	0.001	0.000	0.001	0.002	0.000	0.001	0.001	0.000	0.000	0.000	0.000
791.00	0.000	0.002	0.001	0.001	0.000	0.001	0.002	0.000	0.001	0.001	0.001	0.001	0.001	0.000
792.00	0.000	0.002	0.001	0.000	0.000	0.001	0.002	0.000	0.001	0.001	0.000	0.001	0.001	0.000
793.00	-0.000	0.002	0.001	0.000	0.000	0.001	0.002	0.000	0.001	0.001	0.000	0.000	0.001	0.000
794.00	-0.000	0.002	0.001	0.000	0.000	0.001	0.002	0.000	0.001	0.001	0.000	0.000	0.000	0.000
795.00	0.000	0.002	0.001	0.001	0.000	0.001	0.002	0.000	0.001	0.001	0.000	0.001	0.001	0.000
796.00	0.000	0.002	0.001	0.001	0.000	0.001	0.002	0.000	0.001	0.001	0.000	0.000	0.001	0.000
797.00	-0.000	0.002	0.001	0.001	0.000	0.001	0.002	0.000	0.001	0.001	0.000	0.000	0.001	0.000
798.00	-0.000	0.002	0.001	0.001	0.000	0.001	0.002	0.000	0.001	0.001	0.000	0.000	0.000	0.000
799.00	-0.000	0.002	0.001	0.001	0.000	0.001	0.002	0.000	0.001	0.001	0.001	0.001	0.001	0.000
800.00	-0.000	0.002	0.001	0.001	0.000	0.001	0.002	0.000	0.000	0.001	0.000	0.000	0.000	0.000
801.00	-0.000	0.002	0.001	0.001	0.000	0.001	0.002	0.000	0.000	0.001	0.000	0.000	0.000	0.000
802.00	-0.000	0.002	0.001	0.001	0.000	0.001	0.002	0.000	0.001	0.001	0.000	0.000	0.001	0.000
803.00	-0.000	0.002	0.001	0.001	0.000	0.001	0.002	0.000	0.001	0.001	0.000	0.000	0.000	0.000
804.00	-0.000	0.002	0.001	0.001	0.000	0.001	0.002	0.000	0.001	0.001	0.000	0.000	0.000	0.000
805.00	-0.000	0.002	0.001	0.001	0.000	0.001	0.002	0.000	0.001	0.001	0.000	0.000	0.001	0.000
806.00	0.000	0.002	0.001	0.001	0.000	0.001	0.002	0.000	0.001	0.001	0.000	0.001	0.001	0.000
807.00	-0.000	0.002	0.001	0.001	0.000	0.001	0.002	0.000	0.001	0.001	0.001	0.001	0.001	0.000
808.00	-0.000	0.002	0.001	0.001	0.000	0.001	0.002	0.000	0.001	0.001	0.000	0.001	0.001	0.000
809.00	-0.000	0.002	0.001	0.000	0.000	0.001	0.002	0.000	0.000	0.001	0.000	0.000	0.000	0.000
810.00	-0.000	0.002	0.001	0.000	0.000	0.001	0.002	0.000	0.001	0.001	0.000	0.000	0.000	0.000
811.00	-0.000	0.002	0.001	0.001	0.000	0.001	0.002	0.000	0.001	0.001	0.000	0.000	0.001	0.000
812.00	-0.000	0.002	0.001	0.001	0.000	0.001	0.002	0.000	0.000	0.001	0.000	0.000	0.000	0.000
813.00	-0.000	0.002	0.001	0.000	0.000	0.001	0.002	0.000	0.000	0.001	0.000	0.000	0.000	0.000
814.00	-0.000	0.002	0.001	0.001	0.000	0.001	0.002	0.000	0.001	0.001	0.000	0.001	0.001	0.000
815.00	0.000	0.002	0.001	0.001	0.000	0.001	0.002	0.001	0.001	0.001	0.000	0.001	0.001	0.000
816.00	0.000	0.002	0.001	0.001	0.000	0.001	0.002	0.001	0.001	0.001	0.000	0.000	0.001	0.000
817.00	-0.000	0.002	0.001	0.001	0.000	0.001	0.002	0.000	0.001	0.001	0.000	0.000	0.001	0.000
818.00	-0.000	0.002	0.001	0.001	0.000	0.001	0.002	0.000	0.001	0.001	0.000	0.000	0.001	0.000
819.00	-0.000	0.002	0.001	0.001	0.000	0.001	0.002	0.001	0.001	0.001	0.000	0.001	0.001	0.000
820.00	0.000	0.002	0.001	0.001	0.000	0.001	0.002	0.000	0.001	0.001	0.000	0.000	0.001	0.000
821.00	0.000	0.002	0.001	0.001	0.000	0.001	0.002	0.000	0.001	0.001	0.000	0.000	0.001	0.000
822.00	0.000	0.002	0.001	0.001	0.000	0.001	0.002	0.000	0.001	0.001	0.000	0.000	0.000	0.000
823.00	0.000	0.002	0.001	0.001	0.000	0.001	0.002	0.001	0.001	0.001	0.001	0.001	0.001	0.000
824.00	0.000	0.002	0.001	0.001	0.000	0.001	0.002	0.000	0.001	0.001	0.000	0.000	0.001	0.000
825.00	-0.000	0.002	0.001	0.001	0.000	0.001	0.002	0.000	0.001	0.001	0.000	0.000	0.001	0.000
826.00	0.000	0.002	0.001	0.001	0.000	0.001	0.002	0.000	0.001	0.001	0.000	0.000	0.001	0.000
827.00	0.000	0.002	0.001	0.001	0.000	0.001	0.002	0.000	0.001	0.001	0.000	0.001	0.001	0.000
828.00	0.000	0.002	0.001	0.001	0.000	0.001	0.002	0.000	0.001	0.001	0.000	0.000	0.001	0.000
829.00	-0.000	0.002	0.001	0.000	0.000	0.001	0.002	0.000	0.000	0.001	0.000	0.000	0.000	0.000
830.00	-0.000	0.002	0.001	0.000	0.000	0.001	0.002	0.000	0.000	0.001	0.000	0.000	0.000	0.000
831.00	0.000	0.002	0.001	0.000	0.000	0.001	0.002	0.000	0.000	0.001	0.000	0.000	0.000	0.000
832.00	0.000	0.002	0.001	0.000	0.000	0.001	0.002	0.000	0.000	0.001	0.000	0.000	0.000	0.000
833.00	-0.000	0.002	0.001	0.000	0.000	0.001	0.002	0.000	0.000	0.001	0.000	0.000	0.000	0.000
834.00	-0.000	0.002	0.001	0.000	0.000	0.001	0.002	0.000	0.000	0.001	0.000	0.000	0.000	0.000
835.00	0.000	0.002	0.001	0.000	0.000	0.001	0.002	0.000	0.000	0.001	0.000	0.000	0.000	0.000
836.00	0.000	0.002	0.001	0.000	0.000	0.001	0.002	0.000	0.001	0.001	0.000	0.000	0.001	0.000
837.00	0.000	0.002	0.001	0.000	0.000	0.001	0.002	0.000	0.001	0.001	0.000	0.000	0.001	0.000
838.00	0.000	0.002	0.001	0.000	0.000	0.001	0.002	0.000	0.000	0.001	0.000	0.000	0.001	0.000
839.00	0.000	0.002	0.001	0.000	0.000	0.001	0.002	0.000	0.001	0.001	0.000	0.000	0.000	0.000
840.00	-0.000	0.002	0.001	0.000	0.000	0.001	0.002	0.000	0.000	0.001	0.000	0.000	0.000	0.000
841.00	-0.000	0.002	0.001	0.000	0.000	0.001	0.002	0.000	0.000	0.001	0.000	0.000	0.000	0.000
842.00	-0.000	0.002	0.001	0.000	0.000	0.001	0.002	0.000	0.000	0.001	0.000	0.000	0.000	0.000
843.00	-0.000	0.002	0.001	0.000	0.000	0.001	0.002	0.000	0.000	0.001	0.000	0.000	0.000	0.000
844.00	0.000	0.002	0.001	0.000	0.000	0.001	0.002	0.000	0.001	0.001	0.000	0.000	0.000	0.000
845.00	-0.000	0.002	0.001	0.000	0.000	0.001	0.002	0.000	0.000	0.001	0.000	0.000	0.000	0.000
846.00	-0.000	0.002	0.001	0.000	0.000	0.001	0.002	0.000	0.000	0.001	0.000	0.000	0.000	0.000
847.00	-0.000	0.002	0.001	0.000	0.000	0.001	0.002	0.000	0.000	0.001	0.000	0.000	0.000	0.000
848.00	-0.000	0.002	0.001	0.000	0.000	0.001	0.002	0.000	0.001	0.001	0.000	0.000	0.000	0.000
849.00	0.000	0.002	0.001	0.001	0.000	0.001	0.002	0.000	0.001	0.001	0.000	0.000	0.001	0.000
850.00	-0.000	0.002	0.001	0.000	0.000	0.001	0.002	0.000	0.001	0.001	0.000	0.000	0.000	0.000
