Wavelength nm.,milliQ,s1,s2,s3,s4,s5,s6,s7,s8,s9,s10,s11,s12,s13,s14
190,-0.007,0.303,0.287,0.278,0.276,0.282,0.27,0.269,0.272,0.296,0.265,0.344,0.288,0.282,0.266
191,-0.008,0.282,0.265,0.258,0.258,0.265,0.251,0.25,0.253,0.282,0.248,0.322,0.271,0.262,0.248
192,-0.009,0.261,0.244,0.239,0.237,0.246,0.231,0.23,0.233,0.27,0.228,0.3,0.252,0.241,0.229
193,-0.011,0.238,0.222,0.218,0.215,0.226,0.209,0.209,0.212,0.254,0.208,0.277,0.23,0.22,0.208
194,-0.012,0.219,0.204,0.202,0.197,0.21,0.193,0.192,0.195,0.242,0.192,0.258,0.213,0.204,0.191
195,-0.012,0.203,0.188,0.188,0.181,0.195,0.177,0.176,0.179,0.23,0.178,0.24,0.197,0.188,0.177
196,-0.012,0.189,0.175,0.175,0.168,0.182,0.165,0.164,0.166,0.22,0.166,0.225,0.184,0.175,0.165
197,-0.013,0.176,0.163,0.164,0.156,0.17,0.152,0.152,0.154,0.21,0.154,0.212,0.172,0.163,0.154
198,-0.013,0.165,0.152,0.154,0.146,0.16,0.142,0.142,0.144,0.201,0.144,0.201,0.162,0.153,0.144
199,-0.013,0.156,0.143,0.145,0.137,0.151,0.134,0.133,0.135,0.193,0.136,0.191,0.154,0.144,0.136
200,-0.013,0.148,0.135,0.138,0.129,0.144,0.126,0.126,0.128,0.185,0.129,0.183,0.146,0.136,0.129
201,-0.013,0.14,0.127,0.131,0.121,0.135,0.119,0.119,0.121,0.177,0.122,0.175,0.139,0.129,0.123
202,-0.013,0.133,0.12,0.125,0.115,0.128,0.113,0.113,0.115,0.171,0.116,0.168,0.133,0.122,0.117
203,-0.013,0.128,0.115,0.119,0.109,0.122,0.108,0.108,0.109,0.165,0.111,0.162,0.127,0.117,0.112
204,-0.013,0.122,0.11,0.114,0.104,0.116,0.103,0.103,0.104,0.16,0.106,0.156,0.122,0.112,0.107
205,-0.013,0.117,0.105,0.11,0.1,0.111,0.098,0.099,0.1,0.155,0.103,0.151,0.118,0.108,0.103
206,-0.013,0.113,0.101,0.106,0.096,0.106,0.094,0.095,0.096,0.15,0.099,0.146,0.114,0.104,0.099
207,-0.013,0.109,0.098,0.102,0.092,0.102,0.091,0.092,0.093,0.146,0.096,0.142,0.11,0.101,0.096
208,-0.013,0.106,0.095,0.099,0.089,0.099,0.088,0.089,0.09,0.141,0.093,0.137,0.107,0.097,0.093
209,-0.013,0.103,0.092,0.096,0.086,0.095,0.085,0.086,0.087,0.137,0.09,0.133,0.104,0.094,0.091
210,-0.012,0.1,0.089,0.094,0.083,0.092,0.081,0.083,0.084,0.132,0.087,0.128,0.101,0.091,0.088
211,-0.012,0.097,0.086,0.091,0.08,0.088,0.079,0.081,0.081,0.128,0.085,0.125,0.097,0.089,0.086
212,-0.012,0.095,0.083,0.088,0.077,0.085,0.076,0.078,0.079,0.124,0.082,0.12,0.094,0.086,0.083
213,-0.012,0.092,0.081,0.086,0.075,0.083,0.074,0.076,0.077,0.119,0.08,0.116,0.092,0.084,0.081
214,-0.011,0.09,0.079,0.084,0.072,0.08,0.072,0.074,0.074,0.115,0.078,0.111,0.089,0.082,0.079
215,-0.011,0.088,0.077,0.082,0.07,0.077,0.069,0.072,0.073,0.111,0.076,0.107,0.087,0.08,0.077
216,-0.011,0.085,0.075,0.079,0.068,0.075,0.067,0.07,0.071,0.107,0.074,0.103,0.084,0.077,0.075
217,-0.011,0.083,0.073,0.077,0.066,0.072,0.065,0.069,0.069,0.103,0.072,0.099,0.082,0.075,0.073
218,-0.011,0.081,0.071,0.076,0.064,0.07,0.063,0.067,0.067,0.099,0.07,0.096,0.08,0.073,0.071
219,-0.011,0.079,0.069,0.074,0.062,0.068,0.061,0.065,0.065,0.095,0.068,0.092,0.078,0.071,0.069
220,-0.011,0.078,0.068,0.072,0.06,0.067,0.06,0.064,0.064,0.091,0.067,0.089,0.076,0.07,0.068
221,-0.011,0.076,0.066,0.071,0.059,0.065,0.058,0.062,0.062,0.088,0.065,0.086,0.074,0.068,0.066
222,-0.011,0.075,0.065,0.069,0.057,0.063,0.057,0.061,0.061,0.085,0.064,0.083,0.072,0.066,0.065
223,-0.011,0.073,0.063,0.068,0.056,0.062,0.056,0.059,0.059,0.082,0.062,0.08,0.071,0.065,0.063
224,-0.011,0.072,0.062,0.066,0.055,0.06,0.054,0.058,0.058,0.079,0.061,0.078,0.069,0.063,0.062
225,-0.01,0.071,0.061,0.065,0.054,0.059,0.053,0.057,0.057,0.076,0.06,0.075,0.068,0.062,0.061
226,-0.01,0.069,0.059,0.064,0.052,0.057,0.052,0.056,0.055,0.073,0.058,0.073,0.067,0.061,0.06
227,-0.01,0.068,0.058,0.063,0.051,0.056,0.051,0.054,0.054,0.07,0.057,0.071,0.065,0.059,0.058
228,-0.01,0.067,0.057,0.061,0.05,0.055,0.049,0.053,0.053,0.067,0.056,0.069,0.064,0.058,0.057
229,-0.01,0.065,0.056,0.06,0.049,0.053,0.048,0.052,0.052,0.065,0.055,0.067,0.062,0.057,0.056
230,-0.01,0.064,0.055,0.059,0.048,0.052,0.047,0.051,0.051,0.062,0.053,0.065,0.061,0.055,0.055
231,-0.01,0.063,0.054,0.058,0.047,0.051,0.046,0.05,0.05,0.06,0.052,0.063,0.06,0.054,0.054
232,-0.01,0.062,0.052,0.057,0.046,0.05,0.045,0.049,0.049,0.059,0.051,0.061,0.059,0.053,0.053
233,-0.01,0.061,0.052,0.056,0.045,0.048,0.045,0.048,0.048,0.057,0.05,0.06,0.058,0.052,0.052
234,-0.01,0.06,0.051,0.055,0.045,0.048,0.044,0.047,0.047,0.056,0.049,0.059,0.057,0.052,0.051
235,-0.01,0.059,0.05,0.054,0.044,0.046,0.043,0.046,0.046,0.054,0.048,0.057,0.056,0.05,0.05
236,-0.01,0.058,0.049,0.053,0.043,0.046,0.042,0.045,0.045,0.053,0.048,0.056,0.055,0.05,0.049
237,-0.01,0.057,0.048,0.052,0.042,0.045,0.041,0.045,0.044,0.052,0.047,0.055,0.054,0.049,0.048
238,-0.01,0.056,0.047,0.052,0.041,0.044,0.041,0.044,0.044,0.051,0.046,0.054,0.053,0.048,0.047
239,-0.01,0.055,0.047,0.051,0.041,0.043,0.04,0.043,0.043,0.05,0.045,0.053,0.052,0.047,0.047
240,-0.01,0.055,0.046,0.05,0.04,0.043,0.04,0.043,0.043,0.05,0.045,0.053,0.052,0.047,0.046
241,-0.01,0.054,0.045,0.05,0.04,0.042,0.039,0.042,0.042,0.049,0.044,0.052,0.051,0.046,0.046
242,-0.01,0.054,0.045,0.049,0.039,0.042,0.039,0.042,0.041,0.049,0.044,0.051,0.05,0.046,0.045
243,-0.01,0.053,0.044,0.049,0.039,0.041,0.038,0.041,0.041,0.048,0.043,0.05,0.05,0.045,0.044
244,-0.01,0.053,0.044,0.048,0.038,0.041,0.038,0.041,0.041,0.048,0.043,0.05,0.049,0.045,0.044
245,-0.009,0.052,0.044,0.048,0.038,0.041,0.037,0.041,0.04,0.048,0.043,0.049,0.049,0.044,0.044
246,-0.009,0.052,0.043,0.048,0.038,0.04,0.037,0.04,0.04,0.048,0.042,0.049,0.048,0.044,0.043
247,-0.009,0.052,0.043,0.047,0.037,0.04,0.037,0.04,0.04,0.047,0.042,0.048,0.048,0.044,0.043
248,-0.009,0.051,0.042,0.047,0.037,0.039,0.036,0.04,0.039,0.047,0.042,0.048,0.047,0.043,0.043
249,-0.009,0.051,0.042,0.046,0.037,0.039,0.036,0.039,0.039,0.047,0.041,0.047,0.047,0.043,0.043
250,-0.009,0.051,0.042,0.046,0.037,0.039,0.036,0.039,0.039,0.047,0.041,0.047,0.046,0.043,0.042
251,-0.009,0.051,0.042,0.046,0.036,0.039,0.036,0.039,0.039,0.047,0.041,0.046,0.046,0.043,0.042
252,-0.008,0.05,0.042,0.046,0.036,0.038,0.036,0.039,0.039,0.047,0.041,0.046,0.046,0.042,0.042
253,-0.008,0.05,0.041,0.045,0.035,0.038,0.035,0.038,0.038,0.047,0.04,0.045,0.045,0.042,0.042
254,-0.009,0.05,0.041,0.045,0.035,0.038,0.035,0.038,0.038,0.047,0.04,0.045,0.045,0.042,0.041
255,-0.008,0.049,0.04,0.045,0.035,0.037,0.035,0.038,0.038,0.047,0.04,0.045,0.044,0.041,0.041
256,-0.008,0.049,0.04,0.044,0.035,0.037,0.034,0.037,0.037,0.047,0.039,0.044,0.044,0.041,0.041
257,-0.008,0.049,0.04,0.044,0.034,0.037,0.034,0.037,0.037,0.047,0.039,0.044,0.044,0.041,0.04
258,-0.008,0.048,0.039,0.044,0.034,0.036,0.034,0.037,0.037,0.047,0.039,0.043,0.043,0.04,0.04
259,-0.008,0.048,0.039,0.043,0.034,0.036,0.034,0.037,0.036,0.047,0.038,0.043,0.043,0.04,0.04
260,-0.008,0.047,0.039,0.043,0.034,0.036,0.033,0.036,0.036,0.047,0.038,0.043,0.043,0.04,0.039
261,-0.008,0.047,0.038,0.043,0.033,0.036,0.033,0.036,0.036,0.048,0.038,0.042,0.042,0.04,0.039
262,-0.008,0.047,0.038,0.042,0.033,0.036,0.033,0.036,0.035,0.048,0.038,0.042,0.042,0.039,0.039
263,-0.008,0.046,0.037,0.042,0.032,0.035,0.032,0.035,0.035,0.047,0.037,0.042,0.041,0.039,0.038
264,-0.008,0.045,0.037,0.041,0.032,0.035,0.032,0.035,0.034,0.047,0.036,0.041,0.041,0.038,0.037
265,-0.008,0.045,0.037,0.041,0.032,0.034,0.031,0.034,0.034,0.047,0.036,0.041,0.04,0.038,0.037
266,-0.008,0.044,0.036,0.04,0.031,0.034,0.031,0.034,0.034,0.047,0.036,0.041,0.04,0.037,0.036
267,-0.008,0.044,0.036,0.04,0.031,0.033,0.03,0.033,0.033,0.047,0.035,0.04,0.039,0.037,0.036
268,-0.008,0.043,0.035,0.039,0.03,0.033,0.03,0.033,0.033,0.047,0.035,0.039,0.039,0.036,0.036
269,-0.008,0.043,0.034,0.039,0.03,0.032,0.029,0.032,0.032,0.046,0.034,0.039,0.038,0.036,0.035
270,-0.008,0.042,0.034,0.038,0.029,0.032,0.029,0.032,0.032,0.046,0.034,0.038,0.038,0.035,0.034
271,-0.008,0.042,0.033,0.037,0.029,0.032,0.028,0.031,0.031,0.046,0.033,0.038,0.037,0.035,0.034
272,-0.007,0.041,0.033,0.037,0.028,0.031,0.028,0.031,0.031,0.046,0.032,0.038,0.037,0.034,0.033
273,-0.007,0.04,0.032,0.036,0.028,0.031,0.027,0.03,0.03,0.046,0.032,0.037,0.036,0.033,0.033
274,-0.007,0.04,0.032,0.036,0.027,0.03,0.027,0.03,0.03,0.045,0.031,0.037,0.035,0.033,0.032
275,-0.007,0.039,0.031,0.035,0.027,0.029,0.026,0.029,0.029,0.045,0.031,0.036,0.035,0.032,0.031
276,-0.007,0.038,0.03,0.034,0.026,0.029,0.025,0.028,0.028,0.044,0.03,0.035,0.034,0.031,0.031
277,-0.008,0.037,0.03,0.034,0.025,0.028,0.025,0.028,0.027,0.044,0.029,0.034,0.034,0.031,0.03
278,-0.008,0.036,0.029,0.033,0.025,0.028,0.024,0.027,0.027,0.043,0.028,0.034,0.033,0.03,0.029
279,-0.007,0.036,0.028,0.032,0.024,0.027,0.024,0.026,0.026,0.043,0.028,0.033,0.033,0.029,0.029
280,-0.007,0.035,0.028,0.032,0.023,0.026,0.023,0.026,0.026,0.043,0.027,0.033,0.032,0.029,0.028
281,-0.007,0.035,0.027,0.031,0.023,0.026,0.022,0.025,0.025,0.042,0.026,0.032,0.031,0.028,0.027
282,-0.007,0.034,0.026,0.03,0.022,0.025,0.022,0.024,0.024,0.041,0.026,0.032,0.031,0.027,0.026
283,-0.007,0.033,0.026,0.03,0.022,0.025,0.021,0.024,0.023,0.041,0.025,0.031,0.03,0.026,0.026
284,-0.007,0.033,0.025,0.029,0.021,0.024,0.02,0.023,0.023,0.04,0.024,0.03,0.029,0.026,0.025
285,-0.007,0.032,0.024,0.028,0.02,0.023,0.02,0.022,0.022,0.039,0.024,0.03,0.029,0.025,0.025
286,-0.007,0.031,0.024,0.028,0.02,0.022,0.019,0.022,0.022,0.038,0.023,0.029,0.028,0.024,0.024
287,-0.007,0.031,0.023,0.027,0.019,0.022,0.019,0.021,0.021,0.038,0.023,0.029,0.028,0.024,0.023
288,-0.007,0.03,0.022,0.027,0.019,0.021,0.018,0.021,0.02,0.037,0.022,0.028,0.027,0.023,0.022
289,-0.007,0.029,0.022,0.026,0.018,0.02,0.018,0.02,0.02,0.036,0.021,0.028,0.026,0.022,0.022
290,-0.007,0.029,0.021,0.025,0.017,0.02,0.017,0.019,0.019,0.035,0.021,0.027,0.025,0.022,0.021
291,-0.007,0.028,0.021,0.025,0.017,0.019,0.016,0.019,0.019,0.035,0.02,0.027,0.025,0.021,0.021
292,-0.007,0.028,0.02,0.024,0.016,0.019,0.016,0.018,0.018,0.034,0.02,0.026,0.024,0.021,0.02
293,-0.007,0.027,0.02,0.024,0.016,0.018,0.015,0.018,0.018,0.033,0.019,0.025,0.024,0.02,0.02
294,-0.007,0.026,0.019,0.023,0.015,0.018,0.015,0.017,0.017,0.032,0.018,0.025,0.023,0.02,0.019
295,-0.007,0.026,0.018,0.022,0.015,0.017,0.014,0.017,0.017,0.032,0.018,0.024,0.023,0.019,0.019
296,-0.007,0.025,0.018,0.022,0.014,0.017,0.014,0.016,0.016,0.031,0.017,0.024,0.022,0.019,0.018
297,-0.007,0.025,0.018,0.022,0.014,0.016,0.014,0.016,0.016,0.03,0.017,0.023,0.021,0.018,0.017
298,-0.007,0.025,0.017,0.021,0.013,0.016,0.013,0.015,0.015,0.029,0.017,0.023,0.021,0.018,0.017
299,-0.007,0.024,0.017,0.021,0.013,0.015,0.013,0.015,0.015,0.029,0.016,0.022,0.021,0.017,0.016
300,-0.007,0.024,0.016,0.02,0.013,0.015,0.012,0.015,0.014,0.028,0.016,0.022,0.02,0.017,0.016
301,-0.007,0.023,0.016,0.02,0.012,0.014,0.012,0.014,0.014,0.027,0.015,0.021,0.019,0.016,0.015
302,-0.007,0.023,0.016,0.019,0.012,0.014,0.012,0.014,0.013,0.027,0.015,0.021,0.019,0.016,0.015
303,-0.007,0.022,0.015,0.019,0.011,0.013,0.011,0.013,0.013,0.026,0.014,0.02,0.019,0.015,0.015
304,-0.006,0.022,0.015,0.019,0.011,0.013,0.011,0.013,0.013,0.025,0.014,0.02,0.018,0.015,0.015
305,-0.006,0.022,0.014,0.018,0.011,0.012,0.011,0.013,0.012,0.025,0.014,0.019,0.018,0.015,0.014
306,-0.006,0.021,0.014,0.018,0.011,0.012,0.01,0.012,0.012,0.024,0.013,0.019,0.017,0.014,0.014
307,-0.006,0.021,0.014,0.017,0.01,0.012,0.01,0.012,0.012,0.023,0.013,0.019,0.017,0.014,0.014
308,-0.006,0.02,0.013,0.017,0.01,0.011,0.01,0.012,0.011,0.023,0.013,0.018,0.017,0.014,0.013
309,-0.006,0.02,0.013,0.017,0.01,0.011,0.009,0.012,0.011,0.022,0.012,0.018,0.016,0.013,0.013
310,-0.006,0.019,0.012,0.016,0.009,0.011,0.009,0.011,0.011,0.021,0.012,0.018,0.016,0.013,0.013
311,-0.006,0.019,0.012,0.016,0.009,0.01,0.009,0.011,0.01,0.021,0.012,0.017,0.015,0.012,0.012
312,-0.006,0.019,0.012,0.016,0.009,0.01,0.008,0.01,0.01,0.021,0.012,0.017,0.015,0.012,0.012
313,-0.006,0.019,0.012,0.016,0.009,0.01,0.008,0.01,0.01,0.021,0.011,0.017,0.015,0.012,0.012
314,-0.006,0.019,0.012,0.016,0.008,0.01,0.008,0.01,0.01,0.02,0.011,0.016,0.015,0.012,0.012
315,-0.006,0.018,0.011,0.015,0.008,0.009,0.008,0.01,0.009,0.02,0.011,0.016,0.014,0.011,0.012
316,-0.006,0.018,0.011,0.015,0.008,0.009,0.008,0.01,0.009,0.019,0.011,0.016,0.014,0.011,0.011
317,-0.006,0.018,0.011,0.015,0.008,0.009,0.008,0.009,0.009,0.019,0.011,0.016,0.014,0.011,0.011
318,-0.005,0.018,0.011,0.014,0.008,0.008,0.008,0.009,0.009,0.019,0.01,0.015,0.013,0.011,0.011
319,-0.006,0.017,0.011,0.014,0.007,0.008,0.007,0.009,0.009,0.018,0.01,0.015,0.013,0.01,0.011
320,-0.006,0.017,0.01,0.014,0.007,0.008,0.007,0.009,0.008,0.018,0.01,0.014,0.013,0.01,0.01
321,-0.006,0.017,0.01,0.014,0.007,0.008,0.007,0.009,0.008,0.018,0.009,0.014,0.013,0.01,0.01
322,-0.006,0.016,0.01,0.013,0.007,0.007,0.006,0.008,0.008,0.018,0.009,0.014,0.012,0.01,0.01
323,-0.005,0.016,0.01,0.013,0.007,0.007,0.006,0.008,0.008,0.017,0.009,0.014,0.012,0.01,0.01
324,-0.006,0.016,0.01,0.013,0.006,0.007,0.006,0.008,0.007,0.017,0.009,0.014,0.012,0.01,0.009
325,-0.005,0.016,0.01,0.013,0.006,0.007,0.006,0.008,0.007,0.017,0.009,0.014,0.012,0.01,0.009
326,-0.005,0.016,0.009,0.013,0.006,0.007,0.006,0.008,0.007,0.017,0.009,0.013,0.011,0.009,0.009
327,-0.005,0.015,0.009,0.012,0.006,0.006,0.006,0.007,0.007,0.016,0.008,0.013,0.011,0.009,0.009
328,-0.006,0.015,0.009,0.012,0.005,0.006,0.005,0.007,0.007,0.016,0.008,0.012,0.011,0.009,0.009
329,-0.005,0.015,0.009,0.012,0.005,0.006,0.005,0.007,0.007,0.016,0.008,0.012,0.011,0.009,0.009
330,-0.005,0.015,0.009,0.012,0.005,0.006,0.005,0.007,0.006,0.016,0.008,0.012,0.01,0.008,0.008
331,-0.005,0.015,0.008,0.012,0.005,0.006,0.005,0.007,0.007,0.016,0.008,0.012,0.01,0.008,0.008
332,-0.005,0.015,0.008,0.012,0.005,0.006,0.005,0.007,0.006,0.015,0.008,0.012,0.01,0.008,0.008
333,-0.005,0.014,0.008,0.011,0.004,0.005,0.005,0.007,0.006,0.015,0.007,0.012,0.01,0.008,0.008
334,-0.005,0.014,0.008,0.011,0.004,0.005,0.004,0.006,0.006,0.015,0.007,0.011,0.009,0.007,0.007
335,-0.005,0.014,0.008,0.011,0.004,0.005,0.005,0.006,0.006,0.015,0.007,0.011,0.009,0.008,0.007
336,-0.005,0.014,0.008,0.011,0.004,0.005,0.005,0.006,0.006,0.015,0.007,0.011,0.009,0.008,0.007
337,-0.005,0.014,0.008,0.011,0.004,0.005,0.004,0.006,0.005,0.014,0.007,0.011,0.009,0.007,0.007
338,-0.005,0.014,0.007,0.011,0.004,0.005,0.004,0.006,0.005,0.014,0.007,0.011,0.009,0.007,0.007
339,-0.005,0.014,0.007,0.011,0.004,0.005,0.004,0.006,0.006,0.014,0.007,0.011,0.009,0.007,0.007
340,-0.004,0.015,0.008,0.012,0.005,0.006,0.005,0.007,0.006,0.015,0.008,0.012,0.01,0.008,0.008
341,-0.005,0.013,0.006,0.01,0.003,0.004,0.004,0.005,0.005,0.013,0.006,0.011,0.008,0.007,0.007
342,-0.005,0.012,0.006,0.009,0.003,0.003,0.003,0.005,0.004,0.012,0.005,0.01,0.008,0.006,0.006
343,-0.005,0.012,0.006,0.009,0.003,0.003,0.003,0.005,0.004,0.012,0.006,0.01,0.007,0.006,0.006
344,-0.005,0.012,0.006,0.009,0.003,0.003,0.003,0.005,0.004,0.013,0.006,0.01,0.007,0.006,0.006
345,-0.005,0.012,0.006,0.009,0.002,0.003,0.003,0.004,0.003,0.012,0.005,0.009,0.007,0.005,0.006
346,-0.005,0.012,0.006,0.009,0.003,0.003,0.003,0.004,0.004,0.012,0.005,0.009,0.007,0.006,0.006
347,-0.005,0.012,0.005,0.009,0.002,0.003,0.003,0.004,0.004,0.012,0.005,0.009,0.007,0.006,0.006
348,-0.005,0.012,0.005,0.008,0.002,0.003,0.003,0.004,0.003,0.012,0.005,0.009,0.006,0.005,0.005
349,-0.005,0.012,0.005,0.008,0.002,0.003,0.003,0.004,0.003,0.012,0.005,0.009,0.007,0.006,0.006
350,-0.005,0.012,0.005,0.008,0.002,0.003,0.003,0.004,0.003,0.011,0.005,0.009,0.007,0.005,0.005
351,-0.005,0.012,0.005,0.008,0.002,0.003,0.003,0.004,0.003,0.011,0.005,0.009,0.006,0.005,0.005
352,-0.005,0.011,0.005,0.008,0.002,0.003,0.002,0.004,0.003,0.011,0.005,0.008,0.006,0.005,0.005
353,-0.005,0.011,0.005,0.008,0.002,0.003,0.003,0.004,0.003,0.011,0.004,0.008,0.006,0.005,0.005
354,-0.005,0.011,0.005,0.008,0.002,0.003,0.002,0.003,0.003,0.011,0.004,0.008,0.006,0.005,0.005
355,-0.005,0.011,0.005,0.008,0.002,0.003,0.002,0.004,0.003,0.011,0.005,0.008,0.006,0.005,0.005
356,-0.005,0.011,0.005,0.008,0.002,0.003,0.002,0.004,0.003,0.011,0.004,0.008,0.006,0.005,0.005
357,-0.005,0.011,0.004,0.008,0.002,0.002,0.002,0.003,0.003,0.011,0.004,0.008,0.005,0.005,0.005
358,-0.004,0.011,0.004,0.008,0.002,0.002,0.002,0.003,0.003,0.011,0.004,0.008,0.006,0.005,0.005
359,-0.004,0.011,0.005,0.008,0.002,0.002,0.002,0.003,0.003,0.011,0.004,0.008,0.006,0.005,0.005
360,-0.004,0.011,0.005,0.007,0.002,0.002,0.002,0.003,0.003,0.01,0.004,0.008,0.005,0.004,0.005
361,-0.004,0.011,0.004,0.007,0.002,0.002,0.002,0.003,0.003,0.01,0.004,0.007,0.005,0.004,0.005
362,-0.004,0.011,0.004,0.008,0.002,0.002,0.002,0.003,0.003,0.011,0.004,0.008,0.006,0.005,0.005
363,-0.004,0.011,0.004,0.008,0.002,0.002,0.002,0.003,0.003,0.01,0.004,0.007,0.005,0.004,0.005
364,-0.004,0.01,0.004,0.007,0.002,0.002,0.002,0.003,0.002,0.01,0.004,0.007,0.005,0.004,0.005
365,-0.004,0.011,0.004,0.007,0.002,0.002,0.002,0.003,0.002,0.01,0.004,0.007,0.005,0.004,0.004
366,-0.004,0.011,0.004,0.007,0.002,0.002,0.002,0.003,0.003,0.01,0.004,0.007,0.005,0.004,0.004
367,-0.004,0.01,0.004,0.007,0.001,0.002,0.002,0.003,0.002,0.01,0.004,0.007,0.005,0.004,0.004
368,-0.004,0.01,0.004,0.007,0.001,0.002,0.002,0.003,0.002,0.01,0.003,0.007,0.005,0.004,0.004
369,-0.004,0.01,0.004,0.007,0.001,0.002,0.002,0.003,0.002,0.01,0.003,0.007,0.005,0.004,0.004
370,-0.004,0.01,0.004,0.007,0.001,0.002,0.002,0.002,0.002,0.009,0.003,0.007,0.005,0.004,0.004
371,-0.004,0.01,0.004,0.007,0.001,0.002,0.002,0.003,0.002,0.009,0.003,0.007,0.005,0.004,0.004
372,-0.004,0.01,0.004,0.007,0.001,0.002,0.002,0.003,0.002,0.009,0.003,0.007,0.004,0.004,0.004
373,-0.004,0.01,0.004,0.007,0.001,0.002,0.002,0.003,0.002,0.009,0.003,0.007,0.005,0.004,0.004
374,-0.003,0.01,0.003,0.006,0.001,0.002,0.001,0.002,0.002,0.009,0.003,0.006,0.004,0.003,0.003
375,-0.004,0.01,0.003,0.006,0.001,0.001,0.001,0.002,0.002,0.009,0.003,0.006,0.004,0.003,0.003
376,-0.003,0.01,0.004,0.006,0.001,0.002,0.002,0.002,0.002,0.009,0.003,0.006,0.004,0.004,0.004
377,-0.004,0.01,0.003,0.006,0.001,0.002,0.002,0.002,0.002,0.009,0.003,0.006,0.004,0.003,0.003
378,-0.004,0.01,0.003,0.006,0.001,0.002,0.002,0.002,0.002,0.009,0.003,0.006,0.004,0.003,0.003
379,-0.004,0.009,0.003,0.006,0.001,0.001,0.001,0.002,0.002,0.008,0.003,0.006,0.004,0.003,0.003
380,-0.004,0.009,0.003,0.006,0.001,0.001,0.001,0.002,0.002,0.008,0.003,0.006,0.004,0.003,0.003
381,-0.003,0.009,0.003,0.006,0.001,0.001,0.001,0.002,0.002,0.008,0.003,0.006,0.003,0.003,0.003
382,-0.003,0.009,0.003,0.006,0.001,0.001,0.001,0.002,0.002,0.008,0.003,0.006,0.003,0.003,0.003
383,-0.003,0.009,0.003,0.006,0.001,0.001,0.001,0.002,0.002,0.008,0.003,0.006,0.003,0.003,0.003
384,-0.003,0.009,0.003,0.006,0.001,0.001,0.001,0.002,0.002,0.008,0.002,0.005,0.003,0.003,0.003
385,-0.003,0.009,0.003,0.006,0.001,0.001,0.001,0.002,0.002,0.008,0.002,0.005,0.003,0.003,0.003
386,-0.003,0.009,0.003,0.006,0.001,0.001,0.001,0.002,0.002,0.008,0.003,0.005,0.003,0.003,0.003
387,-0.003,0.009,0.003,0.006,0.001,0.001,0.001,0.002,0.002,0.008,0.002,0.005,0.003,0.003,0.003
388,-0.003,0.009,0.003,0.006,0.001,0.001,0.001,0.002,0.002,0.008,0.003,0.005,0.003,0.003,0.003
389,-0.003,0.009,0.003,0.006,0.001,0.001,0.001,0.002,0.002,0.008,0.003,0.005,0.003,0.003,0.003
390,-0.003,0.009,0.003,0.006,0.001,0.001,0.001,0.002,0.001,0.008,0.002,0.005,0.003,0.003,0.003
391,-0.003,0.009,0.003,0.006,0.001,0.001,0.001,0.002,0.002,0.008,0.002,0.005,0.003,0.003,0.003
392,-0.003,0.009,0.003,0.005,0.001,0.001,0.001,0.002,0.001,0.008,0.002,0.005,0.003,0.003,0.003
393,-0.003,0.009,0.003,0.005,0.001,0.001,0.001,0.002,0.001,0.007,0.002,0.005,0.003,0.003,0.003
394,-0.003,0.009,0.003,0.005,0.001,0.001,0.001,0.002,0.001,0.008,0.002,0.005,0.003,0.003,0.003
395,-0.003,0.009,0.003,0.005,0.001,0.001,0.001,0.002,0.001,0.007,0.002,0.005,0.003,0.003,0.003
396,-0.003,0.009,0.003,0.005,0,0.001,0.001,0.002,0.001,0.007,0.002,0.005,0.003,0.003,0.003
397,-0.003,0.008,0.003,0.005,0,0.001,0.001,0.001,0.001,0.007,0.002,0.005,0.003,0.002,0.002
398,-0.003,0.008,0.002,0.005,0,0.001,0.001,0.001,0.001,0.007,0.002,0.005,0.003,0.002,0.002
399,-0.003,0.008,0.003,0.005,0,0.001,0.001,0.002,0.001,0.007,0.002,0.005,0.003,0.002,0.002
400,-0.002,0.008,0.003,0.005,0,0.001,0.001,0.002,0.001,0.007,0.002,0.005,0.003,0.003,0.003
401,-0.003,0.008,0.003,0.005,0,0.001,0.001,0.001,0.001,0.007,0.002,0.004,0.003,0.002,0.002
402,-0.002,0.008,0.003,0.005,0.001,0.001,0.001,0.001,0.001,0.007,0.002,0.005,0.003,0.002,0.003
403,-0.002,0.008,0.003,0.005,0,0.001,0.001,0.001,0.001,0.007,0.002,0.004,0.003,0.002,0.002
404,-0.002,0.008,0.003,0.005,0,0.001,0.001,0.001,0.001,0.007,0.002,0.004,0.002,0.002,0.002
405,-0.002,0.008,0.002,0.005,0,0.001,0.001,0.001,0.001,0.007,0.002,0.004,0.002,0.002,0.002
406,-0.002,0.008,0.002,0.005,0.001,0.001,0.001,0.001,0.001,0.007,0.002,0.004,0.002,0.002,0.002
407,-0.002,0.008,0.003,0.005,0.001,0.001,0.001,0.001,0.001,0.007,0.002,0.004,0.003,0.002,0.002
408,-0.002,0.008,0.002,0.005,0.001,0.001,0.001,0.001,0.001,0.007,0.002,0.004,0.003,0.002,0.002
409,-0.002,0.008,0.002,0.005,0,0.001,0.001,0.001,0.001,0.007,0.002,0.004,0.002,0.002,0.002
410,-0.002,0.008,0.002,0.005,0,0.001,0.001,0.001,0.001,0.007,0.002,0.004,0.002,0.002,0.002
411,-0.002,0.008,0.002,0.005,0,0.001,0.001,0.001,0.001,0.007,0.002,0.004,0.002,0.002,0.002
412,-0.002,0.008,0.002,0.005,0,0.001,0.001,0.001,0.001,0.007,0.002,0.004,0.002,0.002,0.002
413,-0.002,0.008,0.002,0.005,0.001,0.001,0.001,0.001,0.001,0.007,0.002,0.004,0.002,0.002,0.002
414,-0.002,0.008,0.002,0.005,0.001,0.001,0.001,0.001,0.001,0.007,0.002,0.004,0.002,0.002,0.002
415,-0.002,0.008,0.002,0.005,0.001,0.001,0.001,0.001,0.001,0.007,0.002,0.004,0.002,0.002,0.002
416,-0.002,0.008,0.002,0.005,0.001,0.001,0.001,0.001,0.001,0.007,0.002,0.004,0.002,0.002,0.002
417,-0.002,0.008,0.002,0.005,0,0.001,0.001,0.001,0.001,0.007,0.002,0.004,0.002,0.002,0.002
418,-0.002,0.008,0.002,0.005,0,0.001,0.001,0.001,0.001,0.007,0.002,0.004,0.002,0.002,0.002
419,-0.002,0.008,0.002,0.005,0.001,0.001,0.001,0.001,0.001,0.007,0.002,0.004,0.002,0.002,0.002
420,-0.002,0.008,0.002,0.005,0.001,0.001,0.001,0.001,0.001,0.007,0.002,0.004,0.002,0.002,0.002
421,-0.002,0.008,0.002,0.005,0.001,0.001,0.001,0.001,0.001,0.007,0.002,0.004,0.002,0.002,0.002
422,-0.002,0.008,0.002,0.005,0.001,0.001,0.001,0.001,0.001,0.006,0.002,0.004,0.002,0.002,0.002
423,-0.002,0.008,0.002,0.005,0.001,0.001,0.001,0.001,0.001,0.006,0.002,0.004,0.002,0.002,0.002
424,-0.002,0.008,0.002,0.005,0.001,0.001,0.001,0.001,0.001,0.006,0.002,0.004,0.002,0.002,0.002
425,-0.002,0.008,0.002,0.004,0.001,0.001,0.001,0.001,0.001,0.006,0.002,0.004,0.002,0.002,0.002
426,-0.002,0.007,0.002,0.004,0.001,0.001,0.001,0.001,0.001,0.006,0.001,0.004,0.002,0.002,0.002
427,-0.002,0.008,0.002,0.004,0.001,0.001,0.001,0.001,0.001,0.006,0.001,0.004,0.002,0.002,0.002
428,-0.002,0.008,0.002,0.004,0.001,0.001,0.001,0.001,0.001,0.006,0.001,0.004,0.002,0.002,0.002
429,-0.002,0.007,0.002,0.004,0,0.001,0.001,0.001,0.001,0.006,0.001,0.004,0.002,0.002,0.002
430,-0.001,0.007,0.002,0.004,0,0.001,0.001,0.001,0.001,0.006,0.001,0.004,0.002,0.002,0.002
431,-0.001,0.007,0.002,0.004,0,0.001,0.001,0.001,0.001,0.006,0.001,0.004,0.002,0.002,0.002
432,-0.001,0.007,0.002,0.004,0.001,0.001,0.001,0.001,0.001,0.006,0.001,0.004,0.002,0.002,0.002
433,-0.001,0.007,0.002,0.004,0.001,0.001,0.001,0.001,0.001,0.006,0.001,0.004,0.002,0.002,0.002
434,-0.001,0.007,0.002,0.004,0.001,0.001,0.001,0.001,0.001,0.006,0.001,0.004,0.002,0.002,0.002
435,-0.001,0.007,0.002,0.004,0,0.001,0.001,0.001,0.001,0.006,0.001,0.004,0.002,0.002,0.002
436,-0.001,0.007,0.002,0.004,0.001,0.001,0.001,0.001,0.001,0.006,0.001,0.004,0.002,0.002,0.002
437,-0.001,0.007,0.002,0.004,0.001,0.001,0.001,0.001,0.001,0.006,0.001,0.004,0.002,0.002,0.002
438,-0.001,0.007,0.002,0.004,0,0.001,0.001,0.001,0.001,0.006,0.001,0.004,0.002,0.002,0.002
439,-0.001,0.007,0.002,0.004,0,0.001,0.001,0.001,0.001,0.006,0.001,0.004,0.002,0.001,0.002
440,-0.001,0.007,0.002,0.004,0,0.001,0.001,0.001,0.001,0.006,0.001,0.004,0.002,0.001,0.002
441,-0.001,0.007,0.002,0.004,0,0.001,0.001,0.001,0.001,0.006,0.001,0.004,0.002,0.001,0.002
442,-0.001,0.007,0.002,0.004,0,0.001,0.001,0.001,0.001,0.006,0.001,0.004,0.002,0.001,0.002
443,-0.001,0.007,0.002,0.004,0,0.001,0.001,0.001,0.001,0.006,0.001,0.004,0.002,0.001,0.002
444,-0.001,0.007,0.002,0.004,0,0.001,0.001,0.001,0.001,0.006,0.001,0.004,0.002,0.001,0.002
445,-0.001,0.007,0.002,0.004,0,0.001,0.001,0.001,0.001,0.006,0.001,0.003,0.002,0.001,0.002
446,-0.001,0.007,0.002,0.004,0,0.001,0.001,0.001,0.001,0.006,0.001,0.003,0.002,0.001,0.002
447,-0.001,0.007,0.002,0.004,0,0.001,0.001,0.001,0.001,0.006,0.001,0.003,0.002,0.001,0.001
448,-0.001,0.007,0.002,0.004,0,0,0.001,0.001,0.001,0.005,0.001,0.003,0.001,0.001,0.001
449,-0.001,0.007,0.002,0.004,0,0,0.001,0.001,0,0.005,0.001,0.003,0.001,0.001,0.001
450,-0.001,0.007,0.002,0.004,0,0.001,0.001,0.001,0,0.005,0.001,0.003,0.001,0.001,0.001
451,-0.001,0.007,0.002,0.004,0,0.001,0.001,0.001,0.001,0.005,0.001,0.003,0.001,0.001,0.001
452,-0.001,0.007,0.002,0.004,0,0.001,0.001,0.001,0.001,0.005,0.001,0.003,0.001,0.001,0.001
453,-0.001,0.007,0.002,0.004,0,0,0.001,0.001,0.001,0.005,0.001,0.003,0.001,0.001,0.001
454,-0.001,0.007,0.002,0.004,0,0.001,0.001,0.001,0.001,0.005,0.001,0.003,0.001,0.001,0.001
455,-0.001,0.007,0.002,0.004,0,0.001,0.001,0.001,0.001,0.005,0.001,0.003,0.001,0.001,0.001
456,-0.001,0.007,0.002,0.004,0,0.001,0.001,0.001,0.001,0.005,0.001,0.003,0.001,0.001,0.001
457,-0.001,0.007,0.002,0.004,0,0.001,0.001,0.001,0.001,0.005,0.001,0.003,0.001,0.001,0.001
458,-0.001,0.007,0.002,0.004,0,0.001,0.001,0.001,0,0.005,0.001,0.003,0.001,0.001,0.001
459,-0.001,0.007,0.002,0.004,0,0.001,0.001,0.001,0.001,0.005,0.001,0.003,0.001,0.001,0.001
460,-0.001,0.007,0.002,0.004,0,0.001,0.001,0.001,0.001,0.005,0.001,0.003,0.001,0.001,0.001
461,-0.001,0.007,0.002,0.004,0,0.001,0.001,0.001,0,0.005,0.001,0.003,0.001,0.001,0.001
462,-0.001,0.007,0.001,0.004,0,0.001,0.001,0.001,0,0.005,0.001,0.003,0.001,0.001,0.001
463,-0.001,0.007,0.001,0.004,0,0.001,0.001,0.001,0.001,0.005,0.001,0.003,0.001,0.001,0.001
464,-0.001,0.007,0.001,0.004,0,0.001,0.001,0.001,0,0.005,0.001,0.003,0.001,0.001,0.001
465,-0.001,0.007,0.002,0.004,0,0.001,0.001,0.001,0,0.005,0.001,0.003,0.001,0.001,0.001
466,-0.001,0.007,0.001,0.004,0,0.001,0.001,0.001,0,0.005,0.001,0.003,0.001,0.001,0.001
467,-0.001,0.007,0.002,0.004,0,0.001,0.001,0.001,0,0.005,0.001,0.003,0.001,0.001,0.001
468,-0.001,0.007,0.002,0.004,0,0.001,0.001,0.001,0.001,0.005,0.001,0.003,0.001,0.001,0.001
469,-0.001,0.007,0.002,0.004,0,0.001,0.001,0.001,0,0.005,0.001,0.003,0.001,0.001,0.001
470,-0.001,0.007,0.002,0.004,0,0.001,0.001,0.001,0,0.005,0.001,0.003,0.001,0.001,0.001
471,-0.001,0.007,0.001,0.004,0,0.001,0.001,0.001,0,0.005,0.001,0.003,0.001,0.001,0.001
472,-0.001,0.007,0.001,0.004,0,0,0.001,0.001,0,0.005,0.001,0.003,0.001,0.001,0.001
473,-0.001,0.006,0.001,0.004,0,0,0.001,0.001,0,0.005,0.001,0.003,0.001,0.001,0.001
474,-0.001,0.006,0.001,0.003,0,0,0.001,0,0,0.005,0.001,0.003,0.001,0.001,0.001
475,-0.001,0.006,0.001,0.003,0,0.001,0.001,0,0,0.005,0.001,0.003,0.001,0.001,0.001
476,-0.001,0.006,0.001,0.003,0,0.001,0.001,0,0,0.005,0.001,0.003,0.001,0.001,0.001
477,-0.001,0.006,0.001,0.003,0,0.001,0.001,0.001,0,0.005,0.001,0.003,0.001,0.001,0.001
478,-0.001,0.006,0.001,0.003,0,0,0.001,0.001,0,0.005,0.001,0.003,0.001,0.001,0.001
479,-0.001,0.006,0.001,0.003,0,0.001,0.001,0.001,0,0.005,0.001,0.003,0.001,0.001,0.001
480,-0.001,0.006,0.001,0.004,0,0.001,0.001,0.001,0,0.005,0.001,0.003,0.001,0.001,0.001
481,-0.001,0.006,0.001,0.003,0,0.001,0.001,0.001,0,0.005,0.001,0.003,0.001,0.001,0.001
482,-0.001,0.006,0.001,0.003,0,0.001,0.001,0,0,0.005,0.001,0.003,0.001,0.001,0.001
483,-0.001,0.006,0.001,0.003,0,0.001,0.001,0,0,0.005,0.001,0.003,0.001,0.001,0.001
484,-0.001,0.006,0.001,0.003,0,0.001,0.001,0,0,0.005,0.001,0.003,0.001,0.001,0.001
485,-0.001,0.006,0.001,0.003,0,0.001,0.001,0,0,0.005,0.001,0.003,0.001,0.001,0.001
486,-0.001,0.006,0.001,0.003,0,0.001,0.001,0,0,0.005,0.001,0.003,0.001,0.001,0.001
487,-0.001,0.006,0.001,0.003,0,0.001,0.001,0,0,0.005,0.001,0.003,0.001,0.001,0.001
488,-0.001,0.006,0.001,0.003,0,0.001,0.001,0,0,0.005,0.001,0.003,0.001,0.001,0.001
489,-0.001,0.006,0.001,0.003,0,0.001,0.001,0,0,0.005,0.001,0.003,0.001,0.001,0.001
490,-0.001,0.006,0.001,0.003,0,0.001,0.001,0,0,0.005,0.001,0.003,0.001,0.001,0.001
491,-0.001,0.006,0.001,0.003,0,0.001,0.001,0,0,0.005,0.001,0.003,0.001,0.001,0.001
492,-0.001,0.006,0.001,0.003,0,0.001,0.001,0,0,0.005,0.001,0.003,0.001,0.001,0.001
493,-0.001,0.006,0.001,0.003,0,0,0.001,0,0,0.004,0.001,0.003,0.001,0.001,0.001
494,-0.001,0.006,0.001,0.003,0,0.001,0.001,0,0,0.005,0.001,0.003,0.001,0.001,0.001
495,-0.001,0.006,0.001,0.003,0,0.001,0.001,0.001,0,0.005,0.001,0.003,0.001,0.001,0.001
496,-0.001,0.006,0.001,0.003,0,0.001,0.001,0.001,0,0.005,0.001,0.003,0.001,0.001,0.001
497,-0.001,0.006,0.001,0.003,0,0.001,0.001,0.001,0,0.005,0.001,0.003,0.001,0.001,0.001
498,-0.001,0.006,0.001,0.003,0,0.001,0.001,0,0,0.005,0.001,0.003,0.001,0.001,0.001
499,-0.001,0.006,0.001,0.003,0,0.001,0.001,0,0,0.005,0.001,0.003,0.001,0.001,0.001
500,-0.001,0.006,0.001,0.003,0,0.001,0.001,0,0,0.005,0.001,0.003,0.001,0.001,0.001
501,-0.001,0.006,0.001,0.003,0,0.001,0.001,0.001,0,0.005,0.001,0.003,0.001,0.001,0.001
502,-0.001,0.006,0.001,0.003,0,0.001,0.001,0,0,0.004,0.001,0.003,0.001,0.001,0.001
503,-0.001,0.006,0.001,0.003,0,0.001,0.001,0,0,0.004,0.001,0.003,0.001,0.001,0.001
504,-0.001,0.006,0.001,0.003,0,0.001,0.001,0,0,0.005,0.001,0.003,0.001,0.001,0.001
505,-0.001,0.006,0.001,0.003,0,0.001,0.001,0.001,0,0.005,0.001,0.003,0.001,0.001,0.001
506,0,0.006,0.001,0.003,0,0.001,0.001,0.001,0.001,0.005,0.001,0.003,0.001,0.001,0.001
507,-0.001,0.006,0.001,0.003,0,0.001,0.001,0.001,0.001,0.005,0.001,0.003,0.001,0.001,0.001
508,0,0.006,0.001,0.003,0,0.001,0.001,0.001,0.001,0.004,0.001,0.003,0.001,0.001,0.001
509,-0.001,0.006,0.001,0.003,0,0.001,0.001,0.001,0,0.004,0.001,0.003,0.001,0.001,0.001
510,-0.001,0.006,0.001,0.003,0,0.001,0.001,0,0,0.004,0.001,0.003,0.001,0.001,0.001
511,-0.001,0.006,0.001,0.003,0,0.001,0.001,0,0,0.004,0.001,0.003,0.001,0.001,0.001
512,-0.001,0.006,0.001,0.003,0,0.001,0.001,0,0,0.004,0.001,0.003,0.001,0.001,0.001
513,-0.001,0.006,0.001,0.003,0,0.001,0.001,0,0,0.004,0.001,0.003,0.001,0.001,0.001
514,0,0.006,0.001,0.003,0,0.001,0.001,0,0,0.004,0.001,0.003,0.001,0.001,0.001
515,-0.001,0.006,0.001,0.003,0,0.001,0.001,0,0,0.004,0.001,0.003,0.001,0.001,0.001
516,-0.001,0.006,0.001,0.003,0,0.001,0.001,0,0,0.004,0.001,0.003,0.001,0.001,0.001
517,-0.001,0.006,0.001,0.003,0,0.001,0.001,0,0,0.004,0.001,0.003,0.001,0.001,0.001
518,-0.001,0.006,0.001,0.003,0,0.001,0.001,0,0,0.004,0.001,0.003,0.001,0.001,0.001
519,-0.001,0.006,0.001,0.003,0,0.001,0.001,0,0,0.004,0.001,0.003,0.001,0.001,0.001
520,0,0.006,0.001,0.003,0,0.001,0.001,0,0,0.004,0.001,0.003,0.001,0.001,0.001
521,0,0.006,0.001,0.003,0,0.001,0.001,0,0,0.004,0.001,0.003,0.001,0.001,0.001
522,-0.001,0.006,0.001,0.003,0,0.001,0.001,0,0,0.004,0.001,0.003,0.001,0.001,0.001
523,-0.001,0.006,0.001,0.003,0,0.001,0.001,0,0,0.004,0.001,0.003,0.001,0.001,0.001
524,0,0.006,0.001,0.003,0,0.001,0.001,0,0,0.004,0.001,0.003,0.001,0.001,0.001
525,0,0.006,0.001,0.003,0,0.001,0.001,0,0,0.004,0.001,0.003,0.001,0.001,0.001
526,0,0.006,0.001,0.003,0,0.001,0.001,0,0,0.004,0.001,0.003,0.001,0.001,0.001
527,0,0.006,0.001,0.003,0,0.001,0.001,0,0,0.004,0.001,0.003,0.001,0.001,0.001
528,0,0.006,0.001,0.003,0,0.001,0.001,0,0,0.004,0.001,0.003,0.001,0.001,0.001
529,-0.001,0.006,0.001,0.003,0,0.001,0.001,0,0,0.004,0.001,0.003,0.001,0.001,0.001
530,0,0.006,0.001,0.003,0,0.001,0.001,0,0,0.004,0.001,0.003,0.001,0.001,0.001
531,-0.001,0.006,0.001,0.003,0,0.001,0.001,0,0,0.004,0.001,0.003,0.001,0.001,0.001
532,0,0.006,0.001,0.003,0,0.001,0.001,0,0,0.004,0.001,0.003,0.001,0.001,0.001
533,0,0.006,0.001,0.003,0,0.001,0.001,0,0,0.004,0,0.003,0.001,0.001,0.001
534,0,0.006,0.001,0.003,0,0.001,0.001,0,0,0.004,0.001,0.003,0.001,0.001,0.001
535,0,0.006,0.001,0.003,0.001,0.001,0.001,0.001,0.001,0.004,0.001,0.003,0.001,0.001,0.001
536,0.001,0.007,0.002,0.004,0.001,0.002,0.002,0.001,0.001,0.005,0.002,0.004,0.002,0.002,0.002
537,0,0.006,0.001,0.003,0,0.001,0.001,0.001,0,0.004,0.001,0.003,0.001,0.001,0.001
538,0,0.006,0.001,0.003,0,0.001,0.001,0,0,0.004,0.001,0.003,0.001,0.001,0.001
539,0,0.006,0.001,0.003,0,0.001,0.001,0,0,0.004,0.001,0.003,0.001,0.001,0.001
540,0,0.006,0.001,0.003,0,0.001,0.001,0,0,0.004,0.001,0.003,0.001,0.001,0.001
541,0,0.006,0.001,0.003,0,0.001,0.001,0,0,0.004,0.001,0.003,0.001,0.001,0.001
542,-0.001,0.006,0.001,0.003,0,0.001,0.001,0,0,0.004,0,0.003,0.001,0.001,0
543,-0.001,0.006,0.001,0.003,0,0.001,0.001,0,0,0.004,0.001,0.003,0.001,0.001,0
544,0,0.006,0.001,0.003,0,0.001,0.001,0,0,0.004,0,0.003,0.001,0.001,0
545,0,0.006,0.001,0.003,0,0.001,0.001,0,0,0.004,0.001,0.003,0.001,0.001,0
546,0,0.006,0.001,0.003,0,0.001,0.001,0,0,0.004,0.001,0.003,0.001,0.001,0.001
547,0,0.006,0.001,0.003,0,0.001,0.001,0,0,0.004,0.001,0.003,0.001,0.001,0
548,0,0.006,0.001,0.003,0,0.001,0.001,0,0,0.004,0.001,0.003,0.001,0.001,0.001
549,0,0.006,0.001,0.003,0,0.001,0.001,0.001,0,0.004,0.001,0.003,0.001,0.001,0.001
550,0,0.006,0.001,0.003,0,0.001,0.001,0,0,0.004,0.001,0.003,0.001,0.001,0
551,0,0.006,0.001,0.003,0,0.001,0.001,0,0,0.004,0.001,0.003,0.001,0.001,0
552,0,0.006,0.001,0.003,0,0.001,0.001,0,0,0.004,0,0.003,0.001,0.001,0
553,0,0.006,0.001,0.003,0,0.001,0.001,0,0,0.004,0.001,0.003,0.001,0.001,0
554,0,0.006,0.001,0.003,0,0.001,0.001,0,0,0.004,0.001,0.003,0.001,0.001,0
555,-0.001,0.005,0.001,0.003,0,0.001,0.001,0,0,0.004,0,0.003,0.001,0.001,0
556,0,0.005,0.001,0.003,0,0.001,0.001,0,0,0.004,0,0.003,0.001,0.001,0
557,0,0.006,0.001,0.003,0,0.001,0.001,0,0,0.004,0.001,0.003,0.001,0.001,0
558,0,0.006,0.001,0.003,0,0.001,0.001,0,0,0.004,0,0.003,0.001,0.001,0
559,0,0.006,0.001,0.003,0,0.001,0.001,0,0,0.004,0.001,0.003,0.001,0.001,0
560,0,0.006,0.001,0.003,0,0.001,0.001,0,0,0.004,0,0.003,0.001,0.001,0
561,0,0.006,0.001,0.003,0,0.001,0.001,0,0,0.004,0,0.003,0.001,0.001,0
562,0,0.005,0.001,0.003,0,0,0.001,0,0,0.003,0,0.003,0.001,0.001,0
563,0,0.005,0.001,0.003,0,0.001,0.001,0,0,0.004,0,0.003,0.001,0.001,0
564,0,0.005,0.001,0.003,0,0.001,0.001,0,0,0.004,0.001,0.003,0.001,0.001,0
565,0,0.005,0.001,0.003,0,0.001,0.001,0,0,0.004,0.001,0.003,0.001,0.001,0
566,0,0.006,0.001,0.003,0,0.001,0.001,0,0,0.004,0.001,0.003,0.001,0.001,0
567,0,0.005,0.001,0.003,0,0.001,0.001,0,0,0.004,0,0.003,0.001,0.001,0
568,0,0.005,0.001,0.003,0,0.001,0.001,0,0,0.003,0.001,0.003,0.001,0.001,0
569,0,0.005,0.001,0.003,0,0.001,0.001,0,0,0.003,0.001,0.003,0.001,0.001,0
570,0,0.005,0.001,0.003,0,0.001,0.001,0,0,0.004,0.001,0.003,0.001,0.001,0
571,0,0.005,0.001,0.003,0,0.001,0.001,0,0,0.003,0.001,0.003,0.001,0.001,0
572,0,0.005,0.001,0.003,0,0.001,0.001,0,0,0.003,0,0.003,0.001,0.001,0
573,0,0.005,0.001,0.003,0,0.001,0.001,0,0,0.003,0,0.003,0.001,0.001,0
574,0,0.005,0.001,0.003,0,0.001,0.001,0,0,0.003,0,0.003,0.001,0.001,0
575,0,0.005,0.001,0.003,0,0.001,0.001,0,0,0.003,0,0.003,0.001,0.001,0
576,0,0.005,0.001,0.003,0,0.001,0.001,0,0,0.003,0,0.003,0.001,0.001,0
577,0,0.005,0.001,0.003,0,0.001,0.001,0,0,0.003,0,0.003,0.001,0.001,0
578,0,0.005,0.001,0.003,0,0.001,0.001,0,0,0.003,0,0.003,0.001,0.001,0
579,0,0.005,0.001,0.003,0,0.001,0.001,0,0,0.003,0,0.003,0.001,0.001,0
580,0,0.005,0.001,0.003,0,0.001,0.001,0,0,0.003,0,0.003,0.001,0.001,0
581,0,0.005,0.001,0.003,0,0.001,0.001,0,0,0.003,0.001,0.003,0.001,0.001,0
582,0,0.005,0.001,0.003,0,0.001,0.001,0,0,0.003,0,0.003,0.001,0.001,0
583,0,0.005,0.001,0.003,0,0.001,0.001,0,0,0.003,0,0.003,0.001,0.001,0
584,0,0.005,0.001,0.003,0,0.001,0.001,0,0,0.003,0,0.003,0.001,0.001,0
585,0,0.005,0.001,0.003,0,0.001,0.001,0,0,0.003,0,0.003,0.001,0.001,0
586,0,0.005,0.001,0.003,0,0.001,0.001,0,0,0.003,0,0.003,0.001,0.001,0
587,0,0.005,0.001,0.003,0,0.001,0.001,0,0,0.003,0,0.003,0.001,0.001,0
588,0,0.005,0.001,0.003,0,0.001,0.001,0,0,0.003,0,0.003,0.001,0.001,0
589,0,0.005,0.001,0.003,0,0.001,0.001,0,0,0.003,0,0.003,0.001,0.001,0
590,-0.001,0.005,0.001,0.003,0,0,0.001,0,0,0.003,0,0.003,0,0.001,0
591,-0.001,0.005,0.001,0.003,0,0,0.001,0,0,0.003,0,0.003,0,0.001,0
592,0,0.005,0.001,0.003,0,0.001,0.001,0,0,0.003,0,0.003,0.001,0.001,0
593,0,0.005,0.001,0.003,0,0.001,0.001,0,0,0.003,0,0.003,0,0.001,0
594,0,0.005,0.001,0.003,0,0.001,0.001,0,0,0.003,0,0.003,0,0.001,0
595,0,0.005,0.001,0.003,0,0.001,0.001,0,0,0.003,0,0.003,0,0.001,0
596,0,0.005,0.001,0.003,0,0.001,0.001,0,0,0.003,0,0.003,0.001,0.001,0
597,0,0.005,0.001,0.003,0,0.001,0.001,0,0,0.003,0,0.003,0.001,0.001,0
598,0,0.005,0.001,0.003,0,0.001,0.001,0,0,0.003,0,0.003,0,0.001,0
599,0,0.005,0.001,0.003,0,0.001,0.001,0,0,0.003,0,0.003,0.001,0.001,0
600,0,0.005,0.001,0.002,0,0,0.001,0,0,0.003,0,0.002,0,0.001,0
601,0,0.005,0.001,0.003,0,0.001,0.001,0,0,0.003,0,0.003,0,0.001,0
602,0,0.005,0.001,0.003,0,0.001,0.001,0,0,0.003,0,0.003,0.001,0.001,0
603,0,0.005,0.001,0.003,0,0.001,0.001,0,0,0.003,0,0.003,0,0.001,0
604,0,0.005,0.001,0.003,0,0.001,0.001,0,0,0.003,0,0.003,0,0.001,0
605,0,0.005,0.001,0.003,0,0.001,0.001,0,0,0.003,0,0.003,0.001,0.001,0
606,0,0.005,0.001,0.003,0,0.001,0.001,0,0,0.003,0,0.003,0.001,0.001,0
607,0,0.005,0.001,0.003,0,0,0.001,0,0,0.003,0,0.002,0.001,0.001,0
608,0,0.005,0.001,0.002,0,0.001,0.001,0,0,0.003,0,0.002,0,0.001,0
609,0,0.005,0.001,0.002,0,0,0.001,0,0,0.003,0,0.002,0,0.001,0
610,0,0.005,0.001,0.002,0,0,0.001,0,0,0.003,0,0.002,0,0.001,0
611,0,0.005,0.001,0.002,0,0.001,0.001,0,0,0.003,0,0.002,0,0.001,0
612,0,0.005,0.001,0.003,0,0.001,0.001,0,0,0.003,0,0.003,0.001,0.001,0
613,0,0.005,0.001,0.003,0,0.001,0.001,0,0,0.003,0,0.003,0.001,0.001,0
614,0,0.005,0.001,0.002,0,0.001,0.001,0,0,0.003,0,0.002,0,0.001,0
615,0,0.005,0.001,0.003,0,0.001,0.001,0,0,0.003,0,0.002,0,0.001,0
616,0,0.005,0.001,0.002,0,0.001,0.001,0,0,0.003,0,0.002,0,0.001,0
617,0,0.005,0.001,0.002,0,0,0.001,0,0,0.003,0,0.002,0,0.001,0
618,0,0.005,0.001,0.002,0,0.001,0.001,0,0,0.003,0,0.002,0,0.001,0
619,0,0.005,0.001,0.002,0,0.001,0.001,0,0,0.003,0,0.002,0,0.001,0
620,0,0.005,0.001,0.002,0,0.001,0.001,0,0,0.003,0,0.002,0.001,0.001,0
621,0,0.005,0.001,0.002,0,0.001,0.001,0,0,0.003,0,0.002,0.001,0.001,0
622,0,0.005,0.001,0.002,0,0.001,0.001,0,0,0.003,0,0.002,0.001,0.001,0
623,0,0.005,0.001,0.003,0,0.001,0.001,0,0,0.003,0,0.002,0.001,0.001,0
624,0,0.005,0.001,0.003,0,0.001,0.001,0,0,0.003,0,0.002,0.001,0.001,0
625,0,0.005,0.001,0.002,0,0.001,0.001,0,0,0.003,0,0.002,0.001,0.001,0
626,0,0.005,0.001,0.002,0,0.001,0.001,0,0,0.003,0,0.002,0.001,0.001,0
627,0,0.005,0.001,0.002,0,0.001,0.001,0,0,0.003,0,0.002,0.001,0.001,0
628,0,0.005,0.001,0.002,0,0.001,0.001,0,0,0.003,0,0.002,0.001,0.001,0
629,0,0.005,0.001,0.003,0,0.001,0.001,0,0,0.003,0,0.002,0.001,0.001,0
630,0,0.005,0.001,0.002,0,0.001,0.001,0,0,0.003,0,0.002,0.001,0.001,0
631,0,0.005,0.001,0.002,0,0.001,0.001,0,0,0.003,0,0.002,0.001,0.001,0
632,0,0.005,0.001,0.002,0,0.001,0.001,0,0,0.003,0,0.002,0.001,0.001,0
633,0,0.005,0.001,0.002,0,0.001,0.001,0,0,0.003,0,0.002,0.001,0.001,0
634,0,0.005,0.001,0.002,0,0.001,0.001,0,0,0.003,0,0.002,0.001,0.001,0
635,0,0.005,0.001,0.002,0,0.001,0.001,0,0,0.003,0,0.002,0.001,0.001,0
636,0,0.005,0.001,0.002,0,0.001,0.001,0,0,0.003,0,0.002,0.001,0.001,0
637,0,0.005,0.001,0.002,0,0,0.001,0,0,0.003,0,0.002,0.001,0.001,0
638,0,0.005,0.001,0.002,0,0,0.001,0,0,0.003,0,0.002,0.001,0,0
639,0,0.005,0.001,0.002,0,0.001,0.001,0,0,0.003,0,0.002,0.001,0,0
640,0,0.005,0.001,0.002,0,0.001,0.001,0,0,0.003,0,0.002,0.001,0.001,0
641,0,0.005,0.001,0.002,0,0.001,0.001,0,0,0.003,0,0.002,0.001,0.001,0
642,0,0.005,0.001,0.002,0,0.001,0.001,0,0,0.003,0,0.002,0.001,0.001,0
643,0,0.005,0.001,0.002,0,0.001,0.001,0,0,0.003,0,0.002,0.001,0,0
644,0,0.005,0.001,0.002,0,0.001,0.001,0,0,0.003,0,0.002,0,0.001,0
645,0,0.005,0.001,0.002,0,0.001,0.001,0,0,0.003,0,0.002,0.001,0.001,0
646,0,0.005,0.001,0.002,0,0.001,0.001,0,0,0.003,0,0.002,0.001,0.001,0
647,0,0.005,0.001,0.002,0,0.001,0.001,0,0,0.003,0,0.002,0.001,0.001,0
648,0,0.005,0.001,0.002,0,0.001,0.001,0,0,0.003,0,0.002,0.001,0.001,0
649,0,0.005,0.001,0.002,0,0.001,0.001,0,0,0.003,0,0.002,0.001,0.001,0
650,0,0.005,0.001,0.002,0,0.001,0.001,0,0,0.003,0,0.002,0.001,0.001,0
651,0,0.005,0.001,0.002,0,0.001,0.001,0,0,0.003,0,0.002,0.001,0.001,0
652,0,0.005,0.001,0.002,0,0.001,0.001,0,0,0.003,0,0.002,0.001,0.001,0
653,0,0.005,0.001,0.002,0,0.001,0.001,0,0,0.003,0,0.002,0.001,0.001,0
654,0,0.005,0.001,0.002,0,0.001,0.001,0,0,0.003,0,0.002,0.001,0.001,0
655,0,0.005,0.001,0.002,0,0.001,0.001,0,0,0.003,0,0.002,0.001,0.001,0
656,0,0.005,0.001,0.002,0,0.001,0.001,0,0,0.003,0,0.002,0.001,0.001,0
657,0,0.005,0.001,0.002,0,0.001,0.001,0,0,0.003,0,0.002,0.001,0.001,0
658,0,0.005,0.001,0.002,0,0.001,0.001,0,0,0.003,0,0.002,0.001,0.001,0
659,0,0.005,0.001,0.002,0,0.001,0.001,0,0,0.003,0,0.002,0.001,0.001,0
660,0,0.005,0.001,0.002,0,0.001,0.001,0,0,0.003,0,0.002,0.001,0.001,0
661,0,0.005,0.001,0.003,0,0.001,0.001,0,0,0.003,0,0.002,0.001,0.001,0
662,0,0.005,0.001,0.002,0,0.001,0.001,0,0,0.003,0,0.002,0.001,0.001,0
663,0,0.005,0.001,0.002,0,0.001,0.001,0,0,0.003,0,0.002,0.001,0.001,0
664,0,0.005,0.001,0.002,0,0.001,0.001,0,0,0.003,0,0.002,0.001,0.001,0
665,0,0.005,0.001,0.002,0,0.001,0.001,0,0,0.003,0,0.002,0.001,0.001,0
666,0,0.005,0.001,0.002,0,0.001,0.001,0,0,0.003,0,0.002,0.001,0.001,0
667,0,0.005,0.001,0.002,0,0.001,0.001,0,0,0.003,0,0.002,0.001,0.001,0
668,0,0.005,0.001,0.002,0,0.001,0.001,0,0,0.003,0,0.002,0.001,0.001,0
669,0,0.005,0.001,0.002,0,0.001,0.001,0,0,0.003,0,0.002,0.001,0.001,0
670,0,0.005,0.001,0.003,0,0.001,0.001,0,0,0.003,0,0.002,0.001,0.001,0
671,0,0.005,0.001,0.002,0,0.001,0.001,0,0,0.003,0,0.002,0.001,0,0
672,0,0.005,0.001,0.002,0,0.001,0.001,0,0,0.003,0,0.002,0.001,0.001,0
673,0,0.005,0.001,0.003,0,0.001,0.001,0,0,0.003,0,0.002,0.001,0.001,0
674,0,0.005,0.001,0.002,0,0.001,0.001,0,0,0.003,0,0.002,0.001,0.001,0
675,0,0.005,0.001,0.002,0,0.001,0.001,0,0,0.003,0,0.002,0.001,0,0
676,0,0.005,0.001,0.002,0,0.001,0.001,0,0,0.003,0,0.002,0.001,0.001,0
677,0,0.005,0.001,0.002,0,0.001,0.001,0,0,0.003,0,0.002,0.001,0,0
678,0,0.005,0.001,0.002,0,0.001,0.001,0,0,0.003,0,0.002,0.001,0.001,0
679,0,0.005,0.001,0.002,0,0.001,0.001,0,0,0.003,0,0.002,0.001,0.001,0
680,0,0.005,0.001,0.002,0,0.001,0.001,0,0,0.003,0,0.002,0.001,0.001,0
681,0,0.005,0.001,0.002,0,0.001,0.001,0,0,0.003,0,0.002,0.001,0.001,0
682,0,0.005,0.001,0.002,0,0.001,0.001,0,0,0.003,0,0.002,0.001,0.001,0
683,0,0.005,0.001,0.002,0,0.001,0.001,0,0,0.003,0,0.002,0.001,0.001,0
684,0,0.005,0.001,0.002,0,0.001,0.001,0,0,0.003,0,0.002,0.001,0.001,0
685,0,0.005,0.001,0.002,0,0.001,0.001,0,0,0.003,0,0.002,0.001,0.001,0
686,0,0.005,0.001,0.002,0,0.001,0.001,0,0,0.003,0,0.002,0.001,0.001,0
687,0,0.005,0.001,0.002,0,0.001,0.001,0,0,0.003,0,0.002,0.001,0.001,0
688,0,0.004,0.001,0.002,0,0.001,0.001,0,0,0.003,0,0.002,0.001,0.001,0
689,0,0.004,0.001,0.002,0,0.001,0.001,0,0,0.003,0,0.002,0.001,0.001,0
690,0,0.004,0.001,0.002,0,0.001,0.001,0,0,0.003,0,0.002,0.001,0.001,0
691,0,0.004,0.001,0.002,0,0.001,0.001,0,0,0.003,0,0.002,0,0.001,0
692,0,0.005,0.001,0.002,0,0.001,0.001,0,0,0.003,0,0.002,0.001,0.001,0
693,0,0.004,0.001,0.002,0,0.001,0.001,0,0,0.003,0,0.002,0.001,0.001,0
694,0,0.004,0.001,0.002,0,0.001,0.001,0,0,0.003,0,0.002,0.001,0.001,0
695,0,0.005,0.001,0.002,0,0.001,0.001,0,0,0.003,0,0.002,0.001,0.001,0
696,0,0.004,0.001,0.002,0,0.001,0.001,0,0,0.003,0,0.002,0.001,0.001,0
697,0,0.005,0.001,0.002,0,0.001,0.001,0,0,0.003,0,0.002,0.001,0.001,0
698,0,0.004,0.001,0.002,0,0.001,0.001,0,0,0.003,0,0.002,0.001,0.001,0
699,0,0.005,0.001,0.002,0,0.001,0.001,0,0,0.003,0,0.002,0.001,0.001,0
700,0,0.005,0.001,0.002,0,0.001,0.001,0,0,0.003,0,0.002,0.001,0.001,0
701,0,0.005,0.001,0.002,0,0.001,0.001,0,0,0.003,0,0.002,0.001,0.001,0
702,0,0.004,0.001,0.002,0,0.001,0.001,0,0,0.003,0,0.002,0.001,0.001,0
703,0,0.004,0.001,0.002,0,0.001,0.001,0,0,0.003,0,0.002,0.001,0.001,0
704,0,0.004,0.001,0.002,0,0.001,0.001,0,0,0.003,0,0.002,0.001,0.001,0
705,0,0.004,0.001,0.002,0,0.001,0.001,0,0,0.003,0,0.002,0,0,0
706,0,0.005,0.001,0.002,0,0.001,0.001,0,0,0.003,0,0.002,0,0,0
707,0,0.005,0.001,0.002,0,0.001,0.001,0,0,0.003,0,0.002,0,0.001,0
708,0,0.004,0.001,0.002,0,0.001,0.001,0,0,0.003,0,0.002,0.001,0.001,0
709,0,0.004,0.001,0.002,0,0.001,0.001,0,0,0.002,0,0.002,0.001,0.001,0
710,0,0.004,0.001,0.002,0,0.001,0.001,0,0,0.002,0,0.002,0,0.001,0
711,0,0.004,0.001,0.002,0,0.001,0.001,0,0,0.002,0,0.002,0,0.001,0
712,0,0.004,0.001,0.002,0,0.001,0.001,0,0,0.002,0,0.002,0,0.001,0
713,0,0.004,0.001,0.002,0,0.001,0.001,0,0,0.002,0,0.002,0,0.001,0
714,0,0.004,0.001,0.002,0,0.001,0.001,0,0,0.002,0,0.002,0,0.001,0
715,0,0.004,0.001,0.002,0,0.001,0.001,0,0,0.002,0,0.002,0,0.001,0
716,0,0.004,0.001,0.002,0,0.001,0.001,0,0,0.002,0,0.002,0,0.001,0
717,0,0.004,0.001,0.002,0,0.001,0.001,0,0,0.003,0,0.002,0,0,0
718,0,0.004,0.001,0.002,0,0.001,0.001,0,0,0.002,0,0.002,0,0,0
719,0,0.004,0.001,0.002,0,0.001,0.001,0,0,0.002,0,0.002,0,0,0
720,0,0.004,0.001,0.002,0,0.001,0,0,0,0.002,0,0.002,0,0,0
721,0,0.004,0.001,0.002,0,0.001,0.001,0,0,0.002,0,0.002,0,0,0
722,0,0.004,0.001,0.002,0,0.001,0.001,0,0,0.002,0,0.002,0,0,0
723,0,0.004,0.001,0.002,0,0.001,0.001,0,0,0.002,0,0.002,0,0,0
724,0,0.004,0.001,0.002,0,0.001,0.001,0,0,0.002,0,0.002,0,0,0
725,0,0.004,0.001,0.002,0,0.001,0.001,0,0,0.002,0,0.002,0,0,0
726,0,0.004,0.001,0.002,0,0.001,0.001,0,0,0.002,0,0.002,0,0,0
727,0,0.004,0.001,0.002,0,0.001,0.001,0,0,0.002,0,0.002,0,0,0
728,0,0.004,0.001,0.002,0,0.001,0.001,0,0,0.002,0,0.002,0,0,0
729,0,0.004,0.001,0.002,0,0.001,0.001,0,0,0.002,0,0.002,0,0,0
730,0,0.004,0.001,0.002,0,0.001,0.001,0,0,0.002,0,0.002,0,0,0
731,0,0.004,0.001,0.002,0,0.001,0.001,0,0,0.002,0,0.002,0,0,0
732,0,0.004,0.001,0.002,0,0.001,0,0,0,0.002,0,0.002,0,0,0
733,0,0.004,0.001,0.002,0,0.001,0,0,0,0.002,0,0.002,0,0,0
734,0,0.004,0.001,0.002,0,0,0,0,0,0.002,0,0.002,0,0,0
735,0,0.004,0.001,0.002,0,0,0,0,0,0.002,0,0.002,0,0,0
736,0,0.004,0.001,0.002,0,0,0,0,0,0.002,0,0.002,0,0,0
737,0,0.004,0.001,0.002,0,0,0,0,0,0.002,0,0.002,0,0,0
738,0,0.004,0.001,0.002,0,0,0,0,0,0.002,0,0.002,0,0,0
739,0,0.004,0.001,0.002,0,0,0,0,0,0.002,0,0.002,0,0,0
740,0,0.004,0.001,0.002,0,0,0,0,0,0.002,0,0.002,0,0,0
741,0,0.004,0.001,0.002,0,0,0,0,0,0.002,0,0.002,0,0,0
742,0,0.004,0.001,0.002,0,0,0,0,0,0.002,0,0.002,0,0,0
743,0,0.004,0.001,0.002,0,0,0,0,0,0.002,0,0.002,0,0,0
744,0,0.004,0.001,0.002,0,0,0,0,0,0.002,0,0.002,0,0,0
745,0,0.004,0.001,0.002,0,0,0,0,0,0.002,0,0.002,0,0,0
746,0,0.004,0.001,0.002,0,0,0,0,0,0.002,0,0.002,0,0,0
747,0,0.004,0.001,0.002,0,0,0.001,0,0,0.002,0,0.002,0,0,0
748,0,0.004,0.001,0.002,0,0,0,0,0,0.002,0,0.002,0,0,0
749,0,0.004,0.001,0.002,0,0,0,0,0,0.002,0,0.002,0,0,0
750,0,0.004,0.001,0.002,0,0,0,0,0,0.002,0,0.002,0,0,0
751,0,0.004,0.001,0.002,0,0.001,0.001,0,0,0.002,0,0.002,0,0,0
752,0,0.004,0.001,0.002,0,0.001,0.001,0,0,0.002,0,0.002,0,0,0
753,0,0.004,0.001,0.002,0,0.001,0.001,0,0,0.002,0,0.002,0,0,0
754,0,0.004,0.001,0.002,0,0,0.001,0,0,0.002,0,0.002,0,0,0
755,0,0.004,0.001,0.002,0,0,0.001,0,0,0.002,0,0.002,0,0,0
756,0,0.004,0.001,0.002,0,0,0,0,0,0.002,0,0.002,0,0,0
757,0,0.004,0.001,0.002,0,0.001,0.001,0,0,0.002,0,0.002,0,0,0
758,0,0.004,0.001,0.002,0,0.001,0.001,0,0,0.002,0,0.002,0,0,0
759,0,0.004,0.001,0.002,0,0.001,0.001,0,0,0.002,0,0.002,0.001,0.001,0
760,0.001,0.005,0.002,0.003,0.001,0.002,0.002,0.001,0.001,0.003,0.001,0.003,0.001,0.002,0.001
761,0,0.004,0.001,0.002,0,0.001,0.001,0,0,0.002,0,0.002,0.001,0.001,0
762,0,0.004,0.001,0.002,0,0,0,0,0,0.002,0,0.002,0,0,0
763,0,0.004,0.001,0.002,0,0,0.001,0,0,0.002,0,0.002,0,0,0
764,0,0.004,0.001,0.002,0,0.001,0.001,0,0,0.002,0,0.002,0,0,0
765,0,0.004,0.001,0.002,0,0.001,0,0,0,0.002,0,0.002,0,0,0
766,0,0.004,0.001,0.002,0,0.001,0,0,0,0.002,0,0.002,0,0,0
767,0,0.004,0.001,0.002,0,0.001,0,0,0,0.002,0,0.002,0,0,0
768,0,0.004,0.001,0.002,0,0,0,0,0,0.002,0,0.001,0,0,0
769,0,0.004,0.001,0.002,0,0,0.001,0,0,0.002,0,0.002,0,0,0
770,0,0.004,0.001,0.002,0,0.001,0.001,0,0,0.002,0,0.002,0,0,0
771,0,0.004,0.001,0.002,0,0,0.001,0,0,0.002,0,0.002,0,0,0
772,0,0.004,0.001,0.002,0,0,0,0,0,0.002,0,0.002,0,0,0
773,0,0.004,0.001,0.002,0,0,0,0,0,0.002,0,0.002,0,0,0
774,0,0.004,0.001,0.002,0,0,0,0,0,0.002,0,0.002,0,0,0
775,0,0.004,0.001,0.002,0,0,0,0,0,0.002,0,0.002,0,0,0
776,0,0.004,0.001,0.002,0,0,0.001,0,0,0.002,0,0.002,0,0,0
777,0,0.004,0.001,0.002,0,0.001,0.001,0,0,0.002,0,0.002,0,0,0
778,0,0.004,0.001,0.002,0,0.001,0.001,0,0,0.002,0,0.002,0,0.001,0
779,0,0.004,0.001,0.002,0,0.001,0.001,0,0,0.002,0,0.002,0,0,0
780,0,0.004,0.001,0.002,0,0.001,0.001,0,0,0.002,0,0.002,0,0,0
781,0,0.004,0.001,0.002,0,0.001,0.001,0,0,0.002,0,0.002,0,0,0
782,0,0.004,0.001,0.002,0,0.001,0.001,0,0,0.002,0,0.002,0,0.001,0
783,0,0.004,0.001,0.002,0,0.001,0.001,0,0,0.002,0,0.002,0,0,0
784,0,0.004,0.001,0.002,0,0.001,0.001,0,0,0.002,0,0.002,0,0,0
785,0,0.004,0.001,0.002,0,0.001,0.001,0,0,0.002,0,0.002,0,0.001,0
786,0,0.004,0.001,0.002,0,0.001,0.001,0,0,0.002,0,0.002,0,0.001,0
787,0,0.004,0.001,0.002,0,0.001,0.001,0,0,0.002,0,0.002,0,0,0
788,0,0.004,0.001,0.002,0,0.001,0.001,0,0,0.002,0,0.002,0,0,0
789,0,0.004,0.001,0.002,0,0.001,0.001,0,0,0.002,0,0.002,0,0,0
790,0,0.004,0.001,0.002,0,0.001,0.001,0,0,0.002,0,0.002,0,0.001,0
791,0,0.004,0.001,0.002,0,0.001,0.001,0,0,0.002,0.001,0.002,0,0.001,0
792,0,0.004,0.001,0.002,0,0.001,0.001,0,0,0.002,0,0.002,0,0,0
793,0,0.004,0.001,0.002,0,0.001,0.001,0,0,0.002,0,0.002,0,0,0
794,0,0.004,0.001,0.002,0,0.001,0.001,0,0,0.002,0,0.002,0,0,0
795,0,0.004,0.001,0.002,0,0.001,0.001,0,0,0.002,0,0.002,0,0.001,0
796,0,0.004,0.001,0.002,0,0.001,0.001,0,0,0.002,0,0.002,0,0.001,0
797,0,0.004,0.001,0.002,0,0.001,0.001,0,0,0.002,0,0.002,0,0.001,0
798,0,0.004,0.001,0.002,0,0.001,0.001,0,0,0.002,0,0.002,0,0.001,0
799,0,0.004,0.001,0.002,0,0.001,0.001,0,0,0.002,0,0.002,0.001,0.001,0
800,0,0.004,0.001,0.002,0,0.001,0.001,0,0,0.002,0,0.002,0,0.001,0
801,0,0.004,0.001,0.002,0,0.001,0.001,0,0,0.002,0,0.002,0,0.001,0
802,0,0.004,0.001,0.002,0,0.001,0.001,0,0,0.002,0,0.002,0,0.001,0
803,0,0.004,0.001,0.002,0,0.001,0.001,0,0,0.002,0,0.002,0,0.001,0
804,0,0.004,0.001,0.002,0,0.001,0.001,0,0,0.002,0,0.002,0.001,0.001,0
805,0,0.004,0.001,0.002,0,0.001,0.001,0,0,0.002,0,0.002,0,0.001,0
806,0,0.004,0.001,0.002,0,0.001,0.001,0,0,0.002,0.001,0.002,0,0.001,0
807,0,0.004,0.001,0.002,0,0.001,0.001,0,0,0.002,0,0.002,0,0.001,0
808,0,0.004,0.001,0.002,0,0.001,0.001,0,0,0.002,0,0.002,0,0.001,0
809,0,0.004,0.001,0.002,0,0,0.001,0,0,0.002,0,0.002,0,0,0
810,0,0.004,0.001,0.002,0,0.001,0.001,0,0,0.002,0,0.002,0,0.001,0
811,0,0.004,0.001,0.002,0,0,0.001,0,0,0.002,0,0.002,0,0,0
812,0,0.004,0.001,0.002,0,0.001,0.001,0,0,0.002,0,0.002,0,0,0
813,0,0.004,0.001,0.002,0,0,0.001,0,0,0.002,0,0.002,0,0,0
814,0,0.004,0.001,0.002,0,0.001,0.001,0,0,0.002,0,0.002,0,0,0
815,0,0.004,0.001,0.002,0,0.001,0.001,0,0,0.002,0,0.002,0,0.001,0
816,0,0.004,0.001,0.002,0,0.001,0.001,0,0,0.002,0,0.002,0,0,0
817,0,0.004,0.001,0.002,0,0.001,0.001,0,0,0.002,0,0.002,0,0.001,0
818,0,0.004,0.001,0.002,0,0.001,0.001,0,0,0.002,0,0.002,0,0.001,0
819,0,0.004,0.001,0.002,0,0.001,0.001,0,0,0.002,0,0.002,0,0.001,0
820,0,0.004,0.001,0.002,0,0.001,0.001,0,0,0.002,0,0.002,0,0.001,0
821,0,0.004,0.001,0.002,0,0.001,0.001,0,0,0.002,0,0.002,0.001,0.001,0
822,0,0.004,0.001,0.002,0,0.001,0.001,0,0,0.002,0,0.002,0,0.001,0
823,0,0.004,0.001,0.002,0,0.001,0.001,0,0,0.002,0,0.002,0,0.001,0
824,0,0.004,0.001,0.002,0,0.001,0.001,0,0,0.002,0,0.002,0,0.001,0
825,0,0.004,0.001,0.002,0,0.001,0.001,0,0,0.002,0,0.002,0,0,0
826,0,0.004,0.001,0.002,0,0.001,0.001,0,0,0.002,0,0.002,0,0.001,0
827,0,0.004,0.001,0.002,0,0.001,0.001,0,0,0.002,0,0.002,0.001,0.001,0
828,0,0.004,0.001,0.002,0,0,0.001,0,0,0.002,0,0.002,0,0,0
829,0,0.004,0.001,0.002,0,0,0.001,0,0,0.002,0,0.001,0,0,0
830,0,0.004,0.001,0.002,0,0.001,0.001,0,0,0.002,0,0.002,0,0,0
831,0,0.004,0.001,0.002,0,0,0.001,0,0,0.002,0,0.002,0,0,0
832,0,0.004,0.001,0.002,0,0,0.001,0,0,0.002,0,0.002,0,0.001,0
833,0,0.004,0.001,0.002,0,0,0.001,0,0,0.002,0,0.002,0,0,0
834,0,0.004,0.001,0.002,0,0,0,0,0,0.002,0,0.002,0,0,0
835,0,0.004,0.001,0.002,0,0,0.001,0,0,0.002,0,0.002,0,0,0
836,0,0.004,0.001,0.002,0,0,0.001,0,0,0.002,0,0.001,0,0,0
837,0,0.004,0.001,0.002,0,0,0.001,0,0,0.002,0,0.001,0,0,0
838,0,0.004,0.001,0.002,0,0,0,0,0,0.002,0,0.001,0,0,0
839,0,0.004,0.001,0.002,0,0,0,0,0,0.002,0,0.002,0,0,0
840,0,0.004,0.001,0.002,0,0,0,0,0,0.002,0,0.001,0,0,0
841,0,0.004,0.001,0.002,0,0,0,0,0,0.002,0,0.001,0,0,0
842,0,0.004,0.001,0.002,0,0,0,0,0,0.002,0,0.002,0,0,0
843,0,0.004,0.001,0.002,0,0,0,0,0,0.002,0,0.001,0,0,0
844,0,0.004,0.001,0.002,0,0,0,0,0,0.002,0,0.002,0,0,0
845,0,0.004,0.001,0.002,0,0,0,0,0,0.002,0,0.002,0,0,0
846,0,0.004,0.001,0.002,0,0,0,0,0,0.002,0,0.001,0,0,0
847,0,0.004,0.001,0.002,0,0,0,0,0,0.002,0,0.002,0,0,0
848,0,0.004,0.001,0.002,0,0,0.001,0,0,0.002,0,0.001,0,0,0
849,0,0.004,0.001,0.002,0,0.001,0.001,0,0,0.002,0,0.002,0,0,0
850,0,0.004,0.001,0.002,0,0,0.001,0,0,0.002,0,0.002,0,0,0
