Wavelength nm.	RawData ...	RawData ...	RawData ...	RawData ...	RawData ...	RawData ...	RawData ...	RawData ...	RawData ...	RawData ...	RawData ...	RawData ...	RawData ...	RawData ...	RawData ...	RawData ...
190.00	0.008	0.334	0.326	0.145	3.781	3.752	3.195	-0.009	3.630	1.843	1.006	3.781	1.026	3.879	1.330	0.383
191.00	0.003	0.302	0.296	0.136	3.106	3.031	2.772	-0.011	2.711	1.773	0.935	3.607	1.033	3.853	1.375	0.381
192.00	0.002	0.274	0.269	0.128	3.610	3.123	2.548	-0.009	3.046	1.687	0.883	3.706	1.039	3.704	1.400	0.385
193.00	0.002	0.247	0.242	0.118	3.579	2.925	2.829	-0.008	3.212	1.587	0.837	3.907	1.040	3.993	1.408	0.389
194.00	0.002	0.226	0.224	0.111	3.704	3.557	2.949	-0.008	3.027	1.499	0.798	3.851	1.056	3.587	1.415	0.392
195.00	0.001	0.207	0.205	0.106	3.780	3.659	3.012	-0.007	3.314	1.433	0.757	3.693	1.065	3.950	1.431	0.396
196.00	0.002	0.192	0.190	0.101	3.955	3.440	2.868	-0.006	2.945	1.369	0.725	3.918	1.083	3.746	1.452	0.402
197.00	0.001	0.179	0.177	0.098	3.955	3.514	3.084	-0.006	3.192	1.306	0.693	3.866	1.093	3.829	1.462	0.406
198.00	0.001	0.168	0.165	0.094	3.945	3.829	2.939	-0.006	3.155	1.259	0.664	3.945	1.099	3.808	1.470	0.409
199.00	0.001	0.158	0.155	0.092	3.973	3.546	3.188	-0.004	2.999	1.210	0.640	3.845	1.105	4.000	1.472	0.412
200.00	0.002	0.150	0.147	0.089	3.915	3.983	3.016	-0.004	3.347	1.170	0.617	3.988	1.104	4.000	1.477	0.412
201.00	0.001	0.142	0.139	0.086	3.786	3.552	2.826	-0.003	3.265	1.128	0.595	3.933	1.096	3.838	1.471	0.409
202.00	0.001	0.135	0.132	0.084	3.897	3.544	2.892	-0.003	3.043	1.089	0.574	3.872	1.086	3.849	1.457	0.406
203.00	0.001	0.130	0.127	0.082	3.847	3.499	2.811	-0.002	3.091	1.054	0.557	3.925	1.072	4.000	1.440	0.401
204.00	0.001	0.125	0.122	0.080	3.609	3.786	2.836	-0.002	3.063	1.019	0.539	3.878	1.052	3.922	1.413	0.393
205.00	0.001	0.120	0.117	0.078	3.917	3.587	2.812	-0.002	3.065	0.988	0.522	4.000	1.029	4.000	1.378	0.384
206.00	0.001	0.116	0.113	0.076	3.810	3.839	2.808	-0.002	3.057	0.960	0.506	3.912	1.002	3.919	1.339	0.374
207.00	0.001	0.112	0.109	0.075	3.987	3.622	2.739	-0.002	3.006	0.932	0.492	3.965	0.972	3.707	1.302	0.363
208.00	0.001	0.109	0.106	0.073	3.932	3.865	2.587	-0.001	2.888	0.909	0.479	3.920	0.942	3.786	1.264	0.351
209.00	0.001	0.106	0.102	0.072	3.806	3.801	2.540	-0.002	2.817	0.883	0.466	3.963	0.910	3.835	1.221	0.339
210.00	0.001	0.102	0.099	0.070	3.918	3.814	2.450	-0.002	2.750	0.859	0.453	3.862	0.877	3.552	1.176	0.327
211.00	0.000	0.100	0.096	0.069	3.972	3.557	2.350	-0.002	2.660	0.837	0.441	3.864	0.845	3.495	1.135	0.316
212.00	0.001	0.097	0.094	0.068	3.842	3.493	2.255	-0.001	2.503	0.814	0.430	3.939	0.814	3.323	1.094	0.305
213.00	0.000	0.094	0.091	0.066	3.899	3.799	2.114	-0.001	2.377	0.792	0.418	3.987	0.785	3.312	1.054	0.294
214.00	0.001	0.092	0.089	0.065	3.903	3.856	1.990	-0.001	2.252	0.771	0.407	3.888	0.758	3.091	1.017	0.283
215.00	0.001	0.090	0.087	0.064	3.837	3.644	1.868	-0.001	2.100	0.752	0.397	3.944	0.733	3.062	0.983	0.274
216.00	0.000	0.087	0.085	0.063	3.980	3.541	1.732	-0.001	1.949	0.734	0.387	3.996	0.710	2.932	0.952	0.265
217.00	0.000	0.085	0.082	0.061	3.926	3.556	1.601	-0.001	1.799	0.718	0.378	3.969	0.687	2.821	0.922	0.256
218.00	0.000	0.083	0.081	0.060	3.980	3.322	1.468	-0.001	1.659	0.702	0.371	3.896	0.666	2.773	0.895	0.249
219.00	0.000	0.082	0.079	0.059	3.909	3.088	1.339	-0.001	1.518	0.686	0.362	3.881	0.647	2.659	0.868	0.242
220.00	0.000	0.080	0.077	0.059	3.995	2.830	1.219	-0.001	1.383	0.671	0.354	3.807	0.628	2.567	0.843	0.235
221.00	0.000	0.078	0.076	0.057	3.996	2.642	1.109	-0.001	1.260	0.658	0.348	3.971	0.611	2.500	0.820	0.228
222.00	0.000	0.077	0.074	0.057	3.968	2.429	1.007	-0.001	1.145	0.645	0.341	3.928	0.595	2.439	0.798	0.222
223.00	0.000	0.075	0.073	0.056	3.969	2.201	0.910	-0.001	1.033	0.632	0.334	3.792	0.580	2.385	0.778	0.216
224.00	0.000	0.073	0.071	0.055	3.813	1.991	0.817	-0.001	0.926	0.620	0.328	3.914	0.565	2.310	0.757	0.211
225.00	0.000	0.072	0.070	0.054	3.920	1.793	0.731	-0.001	0.829	0.608	0.322	3.726	0.550	2.249	0.738	0.205
226.00	0.000	0.071	0.068	0.053	3.895	1.608	0.654	-0.001	0.741	0.597	0.316	3.762	0.535	2.196	0.718	0.199
227.00	-0.000	0.069	0.067	0.052	3.863	1.442	0.584	-0.001	0.663	0.586	0.310	3.568	0.520	2.141	0.699	0.194
228.00	0.000	0.068	0.066	0.052	3.737	1.290	0.520	-0.001	0.592	0.575	0.304	3.368	0.505	2.071	0.679	0.189
229.00	0.000	0.067	0.064	0.051	3.358	1.152	0.465	-0.001	0.529	0.564	0.299	3.326	0.491	2.015	0.660	0.183
230.00	0.000	0.065	0.063	0.050	3.115	1.031	0.416	-0.001	0.474	0.554	0.293	3.234	0.476	1.959	0.640	0.178
231.00	-0.000	0.064	0.062	0.049	2.806	0.929	0.374	-0.001	0.427	0.544	0.288	3.175	0.462	1.900	0.621	0.173
232.00	-0.000	0.063	0.061	0.049	2.548	0.837	0.337	-0.000	0.384	0.534	0.283	3.041	0.447	1.839	0.601	0.167
233.00	0.000	0.062	0.060	0.048	2.306	0.756	0.304	-0.001	0.347	0.524	0.277	2.906	0.432	1.778	0.581	0.162
234.00	0.000	0.061	0.059	0.047	2.105	0.690	0.277	-0.000	0.317	0.515	0.273	2.834	0.418	1.717	0.562	0.157
235.00	0.000	0.060	0.058	0.047	1.930	0.633	0.254	-0.000	0.291	0.506	0.268	2.772	0.403	1.660	0.542	0.151
236.00	0.000	0.059	0.057	0.046	1.788	0.584	0.235	-0.001	0.268	0.498	0.264	2.655	0.388	1.600	0.522	0.145
237.00	0.000	0.058	0.056	0.045	1.661	0.543	0.219	-0.001	0.249	0.489	0.259	2.552	0.373	1.538	0.503	0.140
238.00	0.000	0.057	0.055	0.045	1.559	0.508	0.205	-0.000	0.233	0.482	0.255	2.437	0.359	1.477	0.483	0.134
239.00	-0.000	0.056	0.054	0.044	1.471	0.480	0.193	-0.000	0.220	0.475	0.252	2.350	0.345	1.418	0.464	0.129
240.00	0.000	0.055	0.053	0.044	1.396	0.455	0.183	-0.000	0.209	0.468	0.248	2.250	0.331	1.361	0.445	0.124
241.00	0.000	0.055	0.052	0.043	1.333	0.435	0.175	-0.000	0.200	0.462	0.245	2.156	0.317	1.304	0.427	0.119
242.00	0.000	0.054	0.051	0.042	1.280	0.418	0.168	-0.000	0.192	0.455	0.241	2.063	0.303	1.250	0.409	0.114
243.00	0.000	0.053	0.051	0.042	1.234	0.403	0.162	-0.000	0.186	0.450	0.238	1.980	0.291	1.200	0.392	0.109
244.00	0.000	0.052	0.050	0.041	1.197	0.391	0.157	-0.000	0.180	0.444	0.236	1.900	0.279	1.152	0.376	0.105
245.00	0.000	0.052	0.049	0.041	1.164	0.379	0.153	-0.000	0.175	0.439	0.233	1.821	0.268	1.105	0.361	0.101
246.00	-0.000	0.051	0.049	0.041	1.134	0.369	0.149	-0.000	0.171	0.434	0.230	1.746	0.257	1.059	0.347	0.096
247.00	-0.000	0.051	0.048	0.040	1.108	0.361	0.145	-0.000	0.167	0.429	0.228	1.680	0.247	1.018	0.333	0.093
248.00	-0.000	0.050	0.048	0.040	1.085	0.354	0.142	-0.000	0.163	0.425	0.225	1.618	0.238	0.982	0.321	0.089
249.00	0.000	0.050	0.047	0.039	1.064	0.347	0.139	-0.000	0.160	0.421	0.223	1.565	0.230	0.950	0.311	0.086
250.00	0.000	0.049	0.047	0.039	1.046	0.341	0.137	-0.000	0.158	0.417	0.221	1.519	0.223	0.920	0.301	0.084
251.00	-0.000	0.049	0.046	0.039	1.029	0.336	0.135	-0.000	0.155	0.413	0.219	1.476	0.217	0.895	0.293	0.081
252.00	0.000	0.048	0.046	0.038	1.014	0.330	0.133	-0.000	0.153	0.410	0.218	1.437	0.211	0.872	0.285	0.079
253.00	0.000	0.048	0.045	0.038	0.999	0.326	0.131	-0.000	0.150	0.406	0.216	1.402	0.206	0.851	0.278	0.077
254.00	-0.000	0.047	0.045	0.038	0.985	0.321	0.129	-0.000	0.148	0.403	0.214	1.373	0.202	0.833	0.272	0.076
255.00	0.000	0.047	0.044	0.037	0.972	0.317	0.127	-0.000	0.146	0.400	0.212	1.345	0.198	0.816	0.267	0.074
256.00	0.000	0.047	0.044	0.037	0.961	0.313	0.126	-0.000	0.144	0.396	0.210	1.323	0.195	0.802	0.263	0.073
257.00	0.000	0.046	0.044	0.037	0.949	0.309	0.124	-0.000	0.142	0.393	0.208	1.301	0.191	0.789	0.258	0.072
258.00	-0.000	0.046	0.043	0.036	0.939	0.306	0.123	-0.000	0.141	0.390	0.207	1.283	0.189	0.778	0.255	0.071
259.00	0.000	0.045	0.043	0.036	0.929	0.303	0.122	-0.000	0.139	0.387	0.205	1.265	0.186	0.767	0.251	0.070
260.00	0.000	0.045	0.043	0.036	0.920	0.300	0.121	-0.000	0.137	0.384	0.204	1.250	0.184	0.758	0.248	0.069
261.00	0.000	0.045	0.042	0.036	0.911	0.297	0.120	-0.000	0.136	0.381	0.202	1.234	0.182	0.749	0.245	0.068
262.00	0.000	0.044	0.042	0.035	0.902	0.294	0.118	0.000	0.134	0.378	0.201	1.223	0.180	0.742	0.243	0.068
263.00	0.000	0.044	0.041	0.035	0.894	0.291	0.117	-0.000	0.133	0.375	0.199	1.211	0.178	0.734	0.240	0.067
264.00	-0.000	0.043	0.040	0.035	0.885	0.289	0.116	-0.000	0.131	0.371	0.197	1.201	0.177	0.728	0.238	0.066
265.00	0.000	0.042	0.040	0.034	0.877	0.286	0.115	0.000	0.130	0.368	0.195	1.191	0.175	0.723	0.236	0.066
266.00	-0.000	0.042	0.040	0.034	0.869	0.283	0.114	-0.000	0.128	0.365	0.193	1.183	0.174	0.718	0.235	0.065
267.00	-0.000	0.041	0.039	0.033	0.861	0.281	0.113	-0.000	0.127	0.361	0.192	1.177	0.173	0.714	0.233	0.065
268.00	0.000	0.041	0.038	0.033	0.853	0.278	0.112	-0.000	0.125	0.358	0.190	1.171	0.172	0.710	0.232	0.064
269.00	0.000	0.040	0.038	0.033	0.845	0.276	0.111	-0.000	0.124	0.355	0.188	1.166	0.171	0.707	0.231	0.064
270.00	0.000	0.040	0.038	0.033	0.838	0.273	0.110	-0.000	0.123	0.351	0.186	1.162	0.171	0.705	0.231	0.064
271.00	0.000	0.039	0.037	0.032	0.830	0.271	0.109	-0.000	0.121	0.348	0.184	1.158	0.170	0.702	0.230	0.064
272.00	0.000	0.039	0.037	0.032	0.822	0.268	0.108	0.000	0.120	0.344	0.183	1.154	0.170	0.700	0.229	0.064
273.00	0.000	0.038	0.036	0.032	0.814	0.265	0.107	0.000	0.119	0.340	0.181	1.151	0.169	0.698	0.228	0.063
274.00	0.000	0.038	0.036	0.031	0.805	0.263	0.106	0.000	0.117	0.337	0.179	1.147	0.169	0.695	0.227	0.063
275.00	0.000	0.037	0.035	0.031	0.797	0.260	0.104	0.000	0.116	0.333	0.177	1.142	0.168	0.692	0.227	0.063
276.00	0.000	0.036	0.034	0.031	0.788	0.257	0.103	-0.000	0.114	0.329	0.175	1.136	0.167	0.689	0.225	0.062
277.00	0.000	0.036	0.034	0.030	0.779	0.254	0.102	-0.000	0.113	0.326	0.173	1.132	0.166	0.685	0.224	0.062
278.00	-0.000	0.035	0.033	0.030	0.769	0.251	0.101	-0.000	0.111	0.322	0.171	1.125	0.165	0.681	0.223	0.062
279.00	-0.000	0.035	0.033	0.029	0.761	0.248	0.100	-0.000	0.109	0.318	0.169	1.117	0.164	0.677	0.221	0.061
280.00	-0.000	0.034	0.032	0.029	0.751	0.245	0.098	-0.000	0.108	0.314	0.167	1.108	0.163	0.671	0.220	0.061
281.00	-0.000	0.034	0.031	0.029	0.741	0.241	0.097	0.000	0.107	0.309	0.165	1.095	0.161	0.664	0.217	0.060
282.00	-0.000	0.033	0.031	0.028	0.730	0.238	0.096	-0.000	0.105	0.305	0.162	1.082	0.159	0.656	0.214	0.060
283.00	-0.000	0.032	0.030	0.028	0.720	0.235	0.094	-0.000	0.103	0.301	0.160	1.066	0.156	0.646	0.211	0.058
284.00	-0.000	0.032	0.030	0.028	0.709	0.231	0.093	-0.000	0.102	0.296	0.158	1.045	0.153	0.634	0.207	0.058
285.00	0.000	0.031	0.029	0.027	0.697	0.228	0.091	-0.000	0.100	0.292	0.155	1.024	0.150	0.621	0.203	0.056
286.00	0.000	0.031	0.028	0.027	0.687	0.224	0.090	0.000	0.099	0.288	0.153	1.001	0.147	0.607	0.199	0.056
287.00	0.000	0.030	0.028	0.027	0.675	0.220	0.089	0.000	0.097	0.284	0.151	0.976	0.143	0.591	0.194	0.054
288.00	0.000	0.029	0.027	0.026	0.664	0.216	0.087	-0.000	0.095	0.279	0.148	0.950	0.139	0.575	0.188	0.052
289.00	-0.000	0.028	0.026	0.026	0.652	0.213	0.085	-0.000	0.093	0.275	0.146	0.923	0.135	0.559	0.183	0.051
290.00	-0.000	0.028	0.026	0.026	0.642	0.209	0.084	-0.000	0.092	0.271	0.144	0.897	0.132	0.544	0.178	0.049
291.00	0.000	0.027	0.025	0.025	0.630	0.206	0.083	0.000	0.090	0.267	0.142	0.871	0.128	0.529	0.173	0.048
292.00	0.000	0.027	0.025	0.025	0.619	0.202	0.081	-0.000	0.088	0.263	0.140	0.848	0.125	0.515	0.168	0.047
293.00	0.000	0.026	0.024	0.025	0.608	0.198	0.080	0.000	0.087	0.259	0.138	0.826	0.122	0.501	0.164	0.046
294.00	0.000	0.026	0.024	0.024	0.597	0.195	0.078	0.000	0.085	0.255	0.136	0.807	0.119	0.490	0.160	0.045
295.00	0.000	0.025	0.023	0.024	0.586	0.191	0.077	-0.000	0.083	0.252	0.134	0.790	0.116	0.479	0.157	0.044
296.00	0.000	0.025	0.023	0.024	0.576	0.188	0.075	-0.000	0.082	0.248	0.132	0.775	0.114	0.470	0.154	0.043
297.00	-0.000	0.024	0.022	0.023	0.564	0.184	0.074	-0.000	0.080	0.245	0.130	0.761	0.111	0.461	0.151	0.042
298.00	-0.000	0.024	0.021	0.023	0.554	0.181	0.073	-0.000	0.078	0.241	0.129	0.748	0.110	0.453	0.148	0.041
299.00	0.000	0.024	0.021	0.023	0.545	0.178	0.071	-0.000	0.077	0.238	0.127	0.738	0.108	0.447	0.146	0.041
300.00	-0.000	0.023	0.021	0.022	0.535	0.175	0.070	-0.000	0.076	0.235	0.125	0.727	0.106	0.441	0.144	0.040
301.00	-0.000	0.022	0.020	0.022	0.526	0.171	0.069	-0.000	0.074	0.232	0.124	0.717	0.105	0.436	0.142	0.039
302.00	0.000	0.022	0.020	0.022	0.517	0.169	0.068	0.000	0.073	0.229	0.122	0.709	0.104	0.430	0.141	0.039
303.00	0.000	0.022	0.020	0.022	0.509	0.166	0.067	0.000	0.072	0.226	0.121	0.701	0.103	0.426	0.139	0.038
304.00	0.000	0.022	0.019	0.021	0.500	0.163	0.065	0.000	0.070	0.224	0.119	0.694	0.102	0.421	0.138	0.038
305.00	0.000	0.021	0.019	0.021	0.491	0.160	0.064	0.000	0.069	0.221	0.118	0.688	0.101	0.418	0.137	0.038
306.00	0.000	0.021	0.019	0.021	0.482	0.157	0.063	0.000	0.068	0.218	0.116	0.682	0.100	0.414	0.136	0.037
307.00	0.000	0.020	0.018	0.021	0.474	0.154	0.062	0.000	0.067	0.215	0.115	0.677	0.099	0.410	0.135	0.037
308.00	-0.000	0.020	0.018	0.020	0.466	0.152	0.061	-0.000	0.065	0.212	0.113	0.671	0.098	0.407	0.133	0.037
309.00	-0.000	0.019	0.017	0.020	0.458	0.150	0.060	0.000	0.064	0.210	0.112	0.666	0.098	0.404	0.132	0.036
310.00	0.000	0.019	0.017	0.020	0.450	0.147	0.059	0.000	0.063	0.207	0.111	0.660	0.096	0.401	0.131	0.036
311.00	0.000	0.019	0.017	0.020	0.442	0.144	0.058	-0.000	0.062	0.205	0.109	0.655	0.096	0.398	0.130	0.036
312.00	0.000	0.019	0.017	0.019	0.435	0.142	0.057	0.000	0.061	0.202	0.108	0.650	0.095	0.394	0.129	0.035
313.00	-0.000	0.018	0.016	0.019	0.427	0.139	0.056	-0.000	0.060	0.200	0.107	0.644	0.094	0.391	0.128	0.035
314.00	0.000	0.018	0.016	0.019	0.419	0.137	0.055	0.000	0.059	0.198	0.106	0.639	0.094	0.388	0.127	0.035
315.00	0.000	0.017	0.016	0.019	0.412	0.134	0.054	0.000	0.057	0.195	0.104	0.633	0.092	0.384	0.126	0.035
316.00	-0.000	0.017	0.015	0.019	0.404	0.132	0.053	0.000	0.056	0.192	0.103	0.627	0.092	0.380	0.124	0.034
317.00	0.000	0.017	0.015	0.018	0.396	0.129	0.052	0.000	0.055	0.190	0.102	0.620	0.091	0.377	0.123	0.034
318.00	-0.000	0.017	0.014	0.018	0.388	0.127	0.051	0.000	0.054	0.187	0.100	0.614	0.090	0.373	0.122	0.034
319.00	-0.000	0.016	0.014	0.018	0.381	0.124	0.049	0.000	0.053	0.184	0.099	0.607	0.089	0.369	0.120	0.033
320.00	0.000	0.016	0.014	0.018	0.374	0.122	0.049	-0.000	0.052	0.182	0.098	0.600	0.088	0.365	0.119	0.033
321.00	0.000	0.016	0.014	0.018	0.367	0.120	0.048	0.000	0.051	0.180	0.097	0.594	0.087	0.361	0.118	0.033
322.00	0.000	0.016	0.014	0.017	0.360	0.117	0.047	0.000	0.050	0.178	0.095	0.587	0.086	0.357	0.117	0.032
323.00	0.000	0.015	0.014	0.017	0.353	0.115	0.046	0.000	0.049	0.176	0.094	0.581	0.085	0.353	0.116	0.032
324.00	0.000	0.015	0.013	0.017	0.345	0.113	0.045	0.000	0.048	0.173	0.093	0.574	0.084	0.349	0.114	0.031
325.00	0.000	0.015	0.013	0.017	0.339	0.111	0.044	0.000	0.047	0.171	0.092	0.567	0.083	0.344	0.113	0.031
326.00	0.000	0.014	0.013	0.017	0.331	0.108	0.043	0.000	0.046	0.169	0.091	0.559	0.082	0.340	0.111	0.031
327.00	0.000	0.014	0.012	0.016	0.325	0.106	0.042	-0.000	0.045	0.166	0.089	0.552	0.080	0.335	0.110	0.030
328.00	-0.000	0.014	0.012	0.016	0.317	0.103	0.041	0.000	0.044	0.164	0.088	0.544	0.080	0.331	0.108	0.029
329.00	0.000	0.014	0.012	0.016	0.311	0.101	0.040	0.000	0.044	0.161	0.087	0.536	0.078	0.326	0.107	0.029
330.00	0.000	0.014	0.012	0.016	0.304	0.099	0.040	0.000	0.043	0.159	0.085	0.528	0.077	0.321	0.105	0.029
331.00	0.000	0.013	0.012	0.016	0.298	0.097	0.039	0.000	0.042	0.156	0.084	0.519	0.076	0.315	0.103	0.028
332.00	-0.000	0.013	0.011	0.015	0.290	0.095	0.038	0.000	0.041	0.154	0.083	0.510	0.074	0.310	0.101	0.028
333.00	-0.000	0.013	0.011	0.015	0.284	0.093	0.037	0.000	0.039	0.152	0.081	0.501	0.073	0.305	0.099	0.027
334.00	0.000	0.012	0.011	0.015	0.278	0.090	0.036	0.000	0.039	0.149	0.080	0.493	0.072	0.300	0.098	0.027
335.00	-0.000	0.012	0.010	0.015	0.271	0.089	0.035	0.000	0.038	0.147	0.079	0.483	0.070	0.294	0.096	0.026
336.00	-0.000	0.012	0.010	0.015	0.265	0.086	0.034	0.000	0.037	0.145	0.078	0.474	0.069	0.288	0.094	0.026
337.00	-0.000	0.012	0.010	0.014	0.259	0.084	0.034	0.000	0.036	0.142	0.077	0.464	0.068	0.282	0.092	0.025
338.00	-0.000	0.012	0.010	0.014	0.253	0.082	0.033	0.000	0.036	0.140	0.075	0.455	0.066	0.277	0.090	0.025
339.00	0.000	0.012	0.010	0.014	0.248	0.081	0.033	0.001	0.035	0.138	0.075	0.446	0.065	0.272	0.089	0.025
340.00	0.002	0.013	0.012	0.016	0.243	0.081	0.033	0.002	0.036	0.137	0.075	0.439	0.065	0.268	0.088	0.026
341.00	0.000	0.011	0.010	0.014	0.236	0.077	0.031	0.000	0.034	0.133	0.073	0.428	0.063	0.260	0.086	0.024
342.00	0.000	0.011	0.009	0.014	0.230	0.075	0.030	0.000	0.033	0.131	0.071	0.419	0.061	0.255	0.084	0.023
343.00	0.000	0.011	0.009	0.013	0.225	0.073	0.029	-0.000	0.032	0.129	0.070	0.409	0.060	0.249	0.081	0.022
344.00	0.000	0.010	0.009	0.014	0.221	0.072	0.029	0.000	0.031	0.127	0.069	0.401	0.059	0.243	0.080	0.022
345.00	0.000	0.010	0.009	0.013	0.216	0.070	0.028	0.000	0.031	0.125	0.068	0.391	0.057	0.238	0.078	0.021
346.00	-0.000	0.010	0.008	0.013	0.210	0.068	0.027	-0.000	0.029	0.123	0.066	0.382	0.055	0.233	0.076	0.021
347.00	-0.000	0.010	0.008	0.013	0.205	0.067	0.026	-0.000	0.029	0.121	0.065	0.373	0.054	0.227	0.074	0.020
348.00	-0.000	0.010	0.008	0.013	0.201	0.065	0.026	-0.000	0.028	0.119	0.064	0.364	0.053	0.222	0.072	0.020
349.00	0.000	0.010	0.008	0.013	0.196	0.064	0.025	-0.000	0.028	0.117	0.063	0.355	0.052	0.216	0.071	0.019
350.00	0.000	0.009	0.008	0.012	0.192	0.062	0.025	-0.000	0.027	0.115	0.062	0.346	0.050	0.211	0.069	0.019
351.00	0.000	0.009	0.008	0.013	0.188	0.061	0.024	-0.000	0.027	0.113	0.061	0.337	0.049	0.206	0.067	0.019
352.00	0.000	0.009	0.008	0.013	0.184	0.060	0.024	0.000	0.026	0.111	0.061	0.328	0.048	0.200	0.066	0.018
353.00	0.000	0.009	0.008	0.012	0.179	0.058	0.023	-0.000	0.025	0.109	0.060	0.319	0.046	0.195	0.064	0.017
354.00	0.000	0.009	0.008	0.012	0.176	0.057	0.023	0.000	0.025	0.108	0.058	0.311	0.045	0.189	0.062	0.017
355.00	0.000	0.008	0.008	0.012	0.172	0.056	0.022	0.000	0.025	0.106	0.058	0.303	0.044	0.185	0.060	0.017
356.00	0.000	0.009	0.008	0.012	0.168	0.055	0.022	0.000	0.024	0.104	0.057	0.294	0.043	0.180	0.059	0.016
357.00	0.000	0.008	0.007	0.012	0.164	0.053	0.021	-0.000	0.023	0.102	0.056	0.285	0.041	0.175	0.057	0.016
358.00	-0.000	0.008	0.007	0.011	0.160	0.052	0.021	-0.000	0.023	0.101	0.055	0.278	0.041	0.170	0.056	0.015
359.00	0.000	0.008	0.007	0.011	0.157	0.051	0.020	0.000	0.022	0.099	0.054	0.270	0.039	0.165	0.054	0.015
360.00	0.000	0.008	0.007	0.011	0.153	0.050	0.020	0.000	0.022	0.098	0.053	0.263	0.038	0.161	0.053	0.014
361.00	0.000	0.008	0.007	0.011	0.150	0.049	0.019	-0.000	0.021	0.096	0.052	0.256	0.037	0.156	0.051	0.014
362.00	0.000	0.008	0.007	0.011	0.147	0.048	0.019	0.000	0.021	0.094	0.052	0.250	0.036	0.152	0.050	0.014
363.00	0.000	0.008	0.007	0.011	0.144	0.047	0.019	0.000	0.021	0.093	0.050	0.243	0.035	0.148	0.049	0.013
364.00	0.000	0.007	0.006	0.011	0.141	0.046	0.018	-0.000	0.020	0.092	0.050	0.237	0.035	0.145	0.047	0.013
365.00	0.000	0.007	0.006	0.011	0.138	0.045	0.018	0.000	0.020	0.090	0.049	0.231	0.033	0.141	0.046	0.012
366.00	-0.000	0.007	0.006	0.010	0.135	0.044	0.017	0.000	0.019	0.088	0.048	0.225	0.033	0.138	0.045	0.012
367.00	-0.000	0.007	0.006	0.010	0.132	0.043	0.017	-0.000	0.019	0.087	0.048	0.219	0.032	0.134	0.044	0.012
368.00	-0.000	0.007	0.006	0.010	0.128	0.042	0.016	-0.001	0.018	0.085	0.047	0.214	0.031	0.131	0.043	0.011
369.00	-0.000	0.006	0.005	0.010	0.126	0.041	0.016	-0.000	0.018	0.084	0.046	0.209	0.030	0.128	0.041	0.011
370.00	-0.000	0.007	0.006	0.010	0.123	0.040	0.016	-0.000	0.017	0.083	0.045	0.205	0.029	0.125	0.041	0.011
371.00	-0.000	0.007	0.006	0.010	0.121	0.039	0.016	0.000	0.017	0.081	0.044	0.200	0.029	0.123	0.040	0.011
372.00	0.000	0.007	0.005	0.010	0.118	0.038	0.015	-0.000	0.017	0.080	0.044	0.196	0.028	0.120	0.039	0.011
373.00	0.000	0.006	0.006	0.010	0.116	0.038	0.015	0.000	0.017	0.079	0.044	0.193	0.028	0.118	0.039	0.011
374.00	-0.000	0.006	0.005	0.010	0.114	0.037	0.014	-0.000	0.016	0.078	0.043	0.188	0.027	0.116	0.038	0.010
375.00	-0.000	0.006	0.005	0.009	0.111	0.036	0.014	-0.000	0.016	0.077	0.042	0.185	0.027	0.113	0.037	0.010
376.00	-0.000	0.006	0.005	0.009	0.109	0.035	0.014	-0.000	0.015	0.075	0.041	0.181	0.026	0.111	0.036	0.010
377.00	-0.000	0.006	0.005	0.009	0.107	0.035	0.014	-0.000	0.015	0.074	0.041	0.178	0.026	0.109	0.036	0.010
378.00	0.000	0.006	0.005	0.009	0.105	0.034	0.013	0.000	0.015	0.073	0.040	0.175	0.025	0.107	0.035	0.009
379.00	0.000	0.006	0.005	0.009	0.102	0.033	0.013	0.000	0.014	0.072	0.039	0.171	0.025	0.105	0.034	0.009
380.00	-0.000	0.006	0.005	0.009	0.100	0.033	0.013	-0.000	0.014	0.071	0.039	0.168	0.024	0.103	0.034	0.009
381.00	-0.000	0.005	0.004	0.009	0.098	0.032	0.012	-0.000	0.014	0.069	0.038	0.165	0.024	0.101	0.033	0.009
382.00	-0.000	0.005	0.005	0.009	0.096	0.031	0.012	-0.000	0.014	0.068	0.038	0.162	0.023	0.099	0.033	0.009
383.00	0.000	0.005	0.005	0.009	0.095	0.031	0.012	-0.000	0.013	0.067	0.037	0.159	0.023	0.098	0.032	0.008
384.00	0.000	0.005	0.004	0.009	0.092	0.030	0.012	0.000	0.013	0.066	0.037	0.156	0.023	0.096	0.031	0.008
385.00	0.000	0.005	0.004	0.008	0.090	0.029	0.012	-0.000	0.013	0.065	0.036	0.154	0.022	0.094	0.031	0.008
386.00	0.000	0.005	0.004	0.009	0.089	0.029	0.011	-0.000	0.013	0.064	0.036	0.151	0.022	0.093	0.030	0.008
387.00	-0.000	0.005	0.004	0.008	0.087	0.028	0.011	-0.000	0.012	0.063	0.035	0.148	0.021	0.091	0.030	0.008
388.00	-0.000	0.005	0.004	0.008	0.085	0.028	0.011	-0.000	0.012	0.062	0.034	0.146	0.021	0.090	0.029	0.008
389.00	0.000	0.005	0.004	0.008	0.084	0.027	0.011	-0.000	0.012	0.061	0.034	0.143	0.021	0.088	0.029	0.008
390.00	-0.000	0.005	0.004	0.008	0.082	0.027	0.010	-0.000	0.012	0.060	0.034	0.141	0.020	0.087	0.028	0.008
391.00	-0.000	0.005	0.004	0.008	0.080	0.026	0.010	-0.000	0.011	0.059	0.033	0.139	0.020	0.085	0.028	0.007
392.00	-0.000	0.005	0.004	0.008	0.079	0.026	0.010	-0.000	0.011	0.058	0.033	0.137	0.020	0.084	0.027	0.007
393.00	-0.000	0.005	0.004	0.008	0.077	0.025	0.010	-0.000	0.011	0.058	0.032	0.134	0.019	0.083	0.027	0.007
394.00	-0.000	0.004	0.004	0.008	0.076	0.025	0.010	-0.000	0.011	0.057	0.032	0.132	0.019	0.081	0.027	0.007
395.00	-0.000	0.004	0.004	0.008	0.074	0.024	0.009	-0.000	0.010	0.056	0.031	0.130	0.019	0.080	0.026	0.007
396.00	-0.000	0.004	0.004	0.008	0.073	0.024	0.009	-0.000	0.010	0.055	0.031	0.128	0.018	0.079	0.026	0.007
397.00	-0.000	0.004	0.003	0.007	0.072	0.023	0.009	-0.000	0.010	0.054	0.030	0.126	0.018	0.078	0.026	0.007
398.00	-0.000	0.004	0.003	0.007	0.070	0.023	0.009	-0.000	0.010	0.053	0.030	0.124	0.018	0.076	0.025	0.007
399.00	-0.000	0.004	0.003	0.007	0.069	0.023	0.009	-0.000	0.010	0.052	0.029	0.122	0.017	0.075	0.025	0.006
400.00	-0.000	0.004	0.003	0.007	0.068	0.022	0.009	-0.000	0.010	0.052	0.029	0.120	0.017	0.074	0.024	0.006
401.00	-0.000	0.004	0.003	0.007	0.067	0.022	0.008	-0.000	0.009	0.051	0.029	0.118	0.017	0.073	0.024	0.006
402.00	-0.000	0.004	0.003	0.007	0.065	0.021	0.008	-0.000	0.009	0.050	0.028	0.116	0.016	0.072	0.023	0.006
403.00	-0.000	0.004	0.003	0.007	0.064	0.021	0.008	-0.000	0.009	0.050	0.028	0.114	0.016	0.070	0.023	0.006
404.00	-0.000	0.004	0.003	0.007	0.063	0.021	0.008	-0.000	0.009	0.049	0.027	0.112	0.016	0.069	0.023	0.006
405.00	-0.000	0.004	0.003	0.007	0.062	0.020	0.008	-0.000	0.009	0.048	0.027	0.111	0.016	0.068	0.022	0.006
406.00	-0.000	0.004	0.003	0.007	0.061	0.020	0.008	-0.000	0.009	0.047	0.027	0.109	0.015	0.067	0.022	0.006
407.00	-0.000	0.004	0.003	0.007	0.060	0.019	0.008	-0.000	0.008	0.047	0.026	0.107	0.015	0.066	0.022	0.006
408.00	-0.000	0.004	0.003	0.007	0.059	0.019	0.007	-0.000	0.008	0.046	0.026	0.105	0.015	0.065	0.021	0.006
409.00	-0.000	0.004	0.003	0.007	0.058	0.019	0.007	-0.000	0.008	0.045	0.026	0.103	0.015	0.064	0.021	0.005
410.00	-0.000	0.003	0.003	0.007	0.056	0.018	0.007	-0.000	0.008	0.045	0.025	0.102	0.014	0.063	0.020	0.005
411.00	-0.000	0.003	0.003	0.007	0.055	0.018	0.007	-0.000	0.008	0.044	0.025	0.100	0.014	0.062	0.020	0.005
412.00	0.000	0.003	0.003	0.007	0.054	0.018	0.007	0.000	0.008	0.044	0.025	0.098	0.014	0.061	0.020	0.005
413.00	0.000	0.003	0.003	0.007	0.053	0.017	0.007	-0.000	0.008	0.043	0.024	0.097	0.014	0.060	0.020	0.005
414.00	-0.000	0.003	0.003	0.006	0.052	0.017	0.007	0.000	0.007	0.042	0.024	0.095	0.013	0.059	0.019	0.005
415.00	0.000	0.003	0.003	0.007	0.052	0.017	0.007	0.000	0.007	0.042	0.024	0.093	0.013	0.058	0.019	0.005
416.00	0.000	0.003	0.003	0.007	0.051	0.017	0.006	0.000	0.007	0.041	0.023	0.092	0.013	0.057	0.019	0.005
417.00	-0.000	0.003	0.003	0.006	0.049	0.016	0.006	-0.000	0.007	0.041	0.023	0.090	0.013	0.056	0.018	0.005
418.00	0.000	0.003	0.003	0.006	0.048	0.016	0.006	-0.000	0.007	0.040	0.023	0.089	0.013	0.055	0.018	0.005
419.00	-0.000	0.003	0.003	0.006	0.048	0.015	0.006	-0.000	0.007	0.039	0.022	0.088	0.012	0.054	0.018	0.005
420.00	-0.000	0.003	0.003	0.006	0.047	0.015	0.006	-0.000	0.007	0.039	0.022	0.086	0.012	0.053	0.017	0.004
421.00	-0.000	0.003	0.003	0.006	0.046	0.015	0.006	-0.000	0.006	0.038	0.022	0.085	0.012	0.053	0.017	0.004
422.00	-0.000	0.003	0.003	0.006	0.045	0.015	0.006	-0.000	0.006	0.038	0.022	0.084	0.012	0.052	0.017	0.004
423.00	0.000	0.003	0.003	0.006	0.044	0.015	0.006	0.000	0.006	0.037	0.021	0.083	0.012	0.051	0.017	0.004
424.00	-0.000	0.003	0.002	0.006	0.043	0.014	0.005	-0.000	0.006	0.037	0.021	0.082	0.011	0.051	0.017	0.004
425.00	-0.000	0.003	0.002	0.006	0.043	0.014	0.005	-0.000	0.006	0.036	0.021	0.080	0.011	0.050	0.016	0.004
426.00	-0.000	0.003	0.002	0.006	0.042	0.014	0.005	-0.000	0.006	0.036	0.020	0.079	0.011	0.049	0.016	0.004
427.00	0.000	0.003	0.002	0.006	0.041	0.013	0.005	-0.000	0.006	0.035	0.020	0.079	0.011	0.049	0.016	0.004
428.00	-0.000	0.003	0.002	0.006	0.040	0.013	0.005	-0.000	0.006	0.035	0.020	0.077	0.011	0.048	0.016	0.004
429.00	-0.000	0.003	0.002	0.006	0.039	0.013	0.005	-0.000	0.006	0.034	0.020	0.076	0.011	0.047	0.015	0.004
430.00	-0.000	0.003	0.002	0.006	0.039	0.013	0.005	-0.000	0.005	0.034	0.019	0.075	0.010	0.047	0.015	0.004
431.00	-0.000	0.003	0.002	0.006	0.038	0.012	0.005	-0.000	0.005	0.033	0.019	0.074	0.010	0.046	0.015	0.004
432.00	-0.000	0.003	0.002	0.006	0.037	0.012	0.005	-0.000	0.005	0.033	0.019	0.074	0.010	0.046	0.015	0.004
433.00	-0.000	0.002	0.002	0.006	0.037	0.012	0.005	-0.000	0.005	0.032	0.019	0.073	0.010	0.045	0.015	0.004
434.00	-0.000	0.002	0.002	0.006	0.036	0.012	0.004	-0.000	0.005	0.032	0.018	0.072	0.010	0.045	0.015	0.004
435.00	-0.000	0.002	0.002	0.005	0.035	0.011	0.004	-0.000	0.005	0.031	0.018	0.071	0.010	0.044	0.014	0.004
436.00	-0.000	0.002	0.002	0.005	0.035	0.011	0.004	-0.000	0.005	0.031	0.018	0.070	0.010	0.044	0.014	0.004
437.00	-0.000	0.002	0.002	0.006	0.034	0.011	0.004	0.000	0.005	0.031	0.018	0.069	0.010	0.043	0.014	0.004
438.00	-0.000	0.002	0.002	0.005	0.033	0.011	0.004	-0.000	0.005	0.030	0.017	0.068	0.009	0.043	0.014	0.004
439.00	-0.000	0.002	0.002	0.005	0.033	0.011	0.004	-0.000	0.005	0.030	0.017	0.068	0.009	0.042	0.014	0.003
440.00	-0.000	0.002	0.002	0.005	0.032	0.011	0.004	-0.000	0.004	0.029	0.017	0.067	0.009	0.041	0.014	0.003
441.00	-0.000	0.002	0.002	0.005	0.031	0.010	0.004	-0.000	0.004	0.029	0.017	0.066	0.009	0.041	0.013	0.003
442.00	-0.000	0.002	0.002	0.005	0.031	0.010	0.004	-0.000	0.004	0.028	0.017	0.065	0.009	0.041	0.013	0.003
443.00	-0.000	0.002	0.002	0.005	0.030	0.010	0.004	-0.000	0.004	0.028	0.016	0.065	0.009	0.040	0.013	0.003
444.00	-0.000	0.002	0.002	0.005	0.030	0.010	0.004	-0.000	0.004	0.028	0.016	0.064	0.009	0.040	0.013	0.003
445.00	-0.000	0.002	0.002	0.005	0.029	0.010	0.004	-0.000	0.004	0.027	0.016	0.063	0.009	0.039	0.013	0.003
446.00	-0.000	0.002	0.002	0.005	0.029	0.009	0.003	-0.000	0.004	0.027	0.016	0.062	0.009	0.039	0.013	0.003
447.00	-0.000	0.002	0.002	0.005	0.028	0.009	0.003	-0.000	0.004	0.026	0.016	0.062	0.009	0.038	0.013	0.003
448.00	-0.000	0.002	0.002	0.005	0.028	0.009	0.003	-0.000	0.004	0.026	0.015	0.061	0.008	0.038	0.012	0.003
449.00	-0.000	0.002	0.002	0.005	0.028	0.009	0.003	-0.000	0.004	0.026	0.015	0.060	0.008	0.038	0.012	0.003
450.00	-0.000	0.002	0.002	0.005	0.027	0.009	0.003	-0.000	0.004	0.026	0.015	0.060	0.008	0.037	0.012	0.003
451.00	-0.000	0.002	0.002	0.005	0.027	0.009	0.003	-0.000	0.004	0.025	0.015	0.059	0.008	0.037	0.012	0.003
452.00	-0.000	0.002	0.002	0.005	0.026	0.009	0.003	-0.000	0.004	0.025	0.015	0.058	0.008	0.036	0.012	0.003
453.00	-0.000	0.002	0.002	0.005	0.026	0.008	0.003	-0.000	0.004	0.025	0.015	0.057	0.008	0.036	0.012	0.003
454.00	-0.000	0.002	0.002	0.005	0.026	0.008	0.003	-0.000	0.004	0.024	0.014	0.057	0.008	0.036	0.012	0.003
455.00	-0.000	0.002	0.002	0.005	0.025	0.008	0.003	-0.000	0.004	0.024	0.014	0.056	0.008	0.035	0.012	0.003
456.00	0.000	0.002	0.002	0.005	0.025	0.008	0.003	-0.000	0.004	0.024	0.014	0.055	0.008	0.035	0.012	0.003
457.00	0.000	0.002	0.002	0.005	0.024	0.008	0.003	-0.000	0.003	0.023	0.014	0.055	0.008	0.034	0.011	0.003
458.00	0.000	0.002	0.002	0.005	0.024	0.008	0.003	-0.000	0.003	0.023	0.014	0.054	0.008	0.034	0.011	0.003
459.00	0.000	0.002	0.002	0.005	0.024	0.008	0.003	-0.000	0.003	0.023	0.014	0.053	0.007	0.034	0.011	0.003
460.00	0.000	0.002	0.002	0.005	0.023	0.008	0.003	-0.000	0.003	0.023	0.014	0.053	0.007	0.033	0.011	0.003
461.00	0.000	0.002	0.002	0.005	0.023	0.008	0.003	0.000	0.003	0.022	0.013	0.052	0.007	0.033	0.011	0.003
462.00	-0.000	0.002	0.002	0.005	0.023	0.007	0.003	-0.000	0.003	0.022	0.013	0.052	0.007	0.032	0.011	0.003
463.00	0.000	0.002	0.002	0.005	0.022	0.007	0.003	-0.000	0.003	0.022	0.013	0.051	0.007	0.032	0.011	0.003
464.00	-0.000	0.002	0.001	0.005	0.022	0.007	0.003	-0.000	0.003	0.021	0.013	0.050	0.007	0.032	0.010	0.003
465.00	-0.000	0.002	0.001	0.005	0.021	0.007	0.002	-0.000	0.003	0.021	0.013	0.050	0.007	0.031	0.010	0.002
466.00	-0.000	0.002	0.001	0.005	0.021	0.007	0.002	-0.000	0.003	0.021	0.013	0.049	0.007	0.031	0.010	0.002
467.00	-0.000	0.002	0.001	0.005	0.021	0.007	0.002	-0.000	0.003	0.021	0.012	0.049	0.007	0.031	0.010	0.002
468.00	-0.000	0.002	0.001	0.005	0.021	0.007	0.002	-0.000	0.003	0.020	0.012	0.048	0.007	0.030	0.010	0.002
469.00	-0.000	0.002	0.001	0.005	0.020	0.007	0.002	-0.000	0.003	0.020	0.012	0.048	0.007	0.030	0.010	0.002
470.00	-0.000	0.002	0.001	0.005	0.020	0.007	0.002	0.000	0.003	0.020	0.012	0.047	0.007	0.030	0.010	0.002
471.00	-0.000	0.002	0.001	0.005	0.020	0.006	0.002	-0.000	0.003	0.020	0.012	0.047	0.006	0.029	0.010	0.002
472.00	-0.000	0.002	0.001	0.005	0.019	0.006	0.002	-0.000	0.003	0.020	0.012	0.046	0.006	0.029	0.010	0.002
473.00	-0.000	0.002	0.001	0.005	0.019	0.006	0.002	0.000	0.003	0.019	0.012	0.046	0.006	0.029	0.010	0.002
474.00	-0.000	0.001	0.001	0.005	0.019	0.006	0.002	-0.000	0.003	0.019	0.012	0.045	0.006	0.029	0.009	0.002
475.00	-0.000	0.001	0.001	0.005	0.019	0.006	0.002	-0.000	0.003	0.019	0.011	0.045	0.006	0.028	0.009	0.002
476.00	-0.000	0.001	0.001	0.004	0.018	0.006	0.002	-0.000	0.003	0.019	0.011	0.045	0.006	0.028	0.009	0.002
477.00	-0.000	0.001	0.001	0.004	0.018	0.006	0.002	-0.000	0.002	0.018	0.011	0.044	0.006	0.028	0.009	0.002
478.00	-0.000	0.001	0.001	0.004	0.018	0.006	0.002	-0.000	0.002	0.018	0.011	0.044	0.006	0.027	0.009	0.002
479.00	-0.000	0.001	0.001	0.004	0.017	0.006	0.002	-0.000	0.002	0.018	0.011	0.043	0.006	0.027	0.009	0.002
480.00	-0.000	0.001	0.001	0.004	0.017	0.006	0.002	-0.000	0.002	0.018	0.011	0.043	0.006	0.027	0.009	0.002
481.00	-0.000	0.001	0.001	0.004	0.017	0.006	0.002	-0.000	0.002	0.018	0.011	0.042	0.006	0.026	0.009	0.002
482.00	-0.000	0.001	0.001	0.004	0.017	0.005	0.002	-0.000	0.002	0.017	0.011	0.042	0.006	0.026	0.009	0.002
483.00	-0.000	0.001	0.001	0.004	0.016	0.005	0.002	-0.000	0.002	0.017	0.011	0.041	0.005	0.026	0.009	0.002
484.00	-0.000	0.001	0.001	0.004	0.016	0.005	0.002	-0.000	0.002	0.017	0.011	0.041	0.005	0.025	0.008	0.002
485.00	-0.000	0.001	0.001	0.004	0.016	0.005	0.002	-0.000	0.002	0.017	0.010	0.040	0.005	0.025	0.008	0.002
486.00	-0.000	0.001	0.001	0.004	0.016	0.005	0.002	-0.000	0.002	0.017	0.010	0.040	0.005	0.025	0.008	0.002
487.00	-0.000	0.001	0.001	0.004	0.016	0.005	0.002	-0.000	0.002	0.017	0.010	0.039	0.005	0.025	0.008	0.002
488.00	-0.000	0.001	0.001	0.004	0.015	0.005	0.002	-0.000	0.002	0.016	0.010	0.039	0.005	0.024	0.008	0.002
489.00	-0.000	0.001	0.001	0.004	0.015	0.005	0.002	-0.000	0.002	0.016	0.010	0.038	0.005	0.024	0.008	0.002
490.00	-0.000	0.001	0.001	0.004	0.015	0.005	0.002	-0.000	0.002	0.016	0.010	0.038	0.005	0.024	0.008	0.002
491.00	-0.000	0.001	0.001	0.004	0.015	0.005	0.002	-0.000	0.002	0.016	0.010	0.037	0.005	0.023	0.008	0.002
492.00	-0.000	0.001	0.001	0.004	0.015	0.005	0.002	-0.000	0.002	0.016	0.010	0.037	0.005	0.023	0.008	0.002
493.00	-0.000	0.001	0.001	0.004	0.014	0.005	0.002	-0.000	0.002	0.016	0.010	0.036	0.005	0.023	0.008	0.002
494.00	-0.000	0.001	0.001	0.004	0.014	0.005	0.002	-0.000	0.002	0.015	0.010	0.036	0.005	0.022	0.007	0.002
495.00	-0.000	0.001	0.001	0.004	0.014	0.005	0.002	-0.000	0.002	0.015	0.010	0.035	0.005	0.022	0.007	0.002
496.00	-0.000	0.001	0.001	0.004	0.014	0.005	0.002	0.000	0.002	0.015	0.010	0.035	0.005	0.022	0.007	0.002
497.00	-0.000	0.001	0.001	0.004	0.014	0.005	0.001	-0.000	0.002	0.015	0.009	0.034	0.004	0.022	0.007	0.002
498.00	-0.000	0.001	0.001	0.004	0.014	0.005	0.002	-0.000	0.002	0.015	0.009	0.034	0.004	0.021	0.007	0.002
499.00	-0.000	0.001	0.001	0.004	0.013	0.004	0.001	-0.000	0.002	0.015	0.009	0.033	0.004	0.021	0.007	0.002
500.00	-0.000	0.001	0.001	0.004	0.013	0.004	0.001	-0.000	0.002	0.015	0.009	0.033	0.004	0.021	0.007	0.002
501.00	-0.000	0.001	0.001	0.004	0.013	0.004	0.002	0.000	0.002	0.015	0.009	0.033	0.004	0.021	0.007	0.002
502.00	-0.000	0.001	0.001	0.004	0.013	0.004	0.001	-0.000	0.002	0.014	0.009	0.032	0.004	0.020	0.007	0.002
503.00	-0.000	0.001	0.001	0.004	0.013	0.004	0.001	-0.000	0.002	0.014	0.009	0.032	0.004	0.020	0.007	0.001
504.00	-0.000	0.001	0.001	0.004	0.013	0.004	0.001	0.000	0.002	0.014	0.009	0.031	0.004	0.020	0.007	0.001
505.00	-0.000	0.001	0.001	0.004	0.013	0.004	0.001	0.000	0.002	0.014	0.009	0.031	0.004	0.019	0.007	0.001
506.00	-0.000	0.001	0.001	0.004	0.012	0.004	0.001	0.000	0.002	0.014	0.009	0.030	0.004	0.019	0.007	0.001
507.00	0.000	0.001	0.001	0.004	0.012	0.004	0.001	0.000	0.002	0.014	0.009	0.030	0.004	0.019	0.006	0.001
508.00	-0.000	0.001	0.001	0.004	0.012	0.004	0.001	-0.000	0.002	0.014	0.009	0.029	0.004	0.019	0.006	0.001
509.00	-0.000	0.001	0.001	0.004	0.012	0.004	0.001	-0.000	0.002	0.013	0.009	0.029	0.004	0.018	0.006	0.001
510.00	-0.000	0.001	0.001	0.004	0.012	0.004	0.001	-0.000	0.002	0.013	0.008	0.028	0.004	0.018	0.006	0.001
511.00	-0.000	0.001	0.001	0.004	0.012	0.004	0.001	0.000	0.002	0.013	0.008	0.028	0.004	0.018	0.006	0.001
512.00	0.000	0.001	0.001	0.004	0.012	0.004	0.001	0.000	0.002	0.013	0.008	0.028	0.004	0.018	0.006	0.001
513.00	0.000	0.001	0.001	0.004	0.011	0.004	0.001	0.000	0.002	0.013	0.008	0.027	0.004	0.017	0.006	0.001
514.00	0.000	0.001	0.001	0.004	0.011	0.004	0.001	-0.000	0.001	0.013	0.008	0.027	0.004	0.017	0.006	0.001
515.00	0.000	0.001	0.001	0.004	0.011	0.004	0.001	0.000	0.002	0.013	0.008	0.026	0.004	0.017	0.006	0.001
516.00	0.000	0.001	0.001	0.004	0.011	0.004	0.001	0.000	0.001	0.013	0.008	0.026	0.004	0.017	0.006	0.001
517.00	-0.000	0.001	0.001	0.004	0.011	0.004	0.001	-0.000	0.001	0.012	0.008	0.026	0.003	0.016	0.005	0.001
518.00	-0.000	0.001	0.001	0.004	0.011	0.004	0.001	-0.000	0.001	0.012	0.008	0.025	0.003	0.016	0.005	0.001
519.00	-0.000	0.001	0.001	0.004	0.011	0.004	0.001	-0.000	0.001	0.012	0.008	0.025	0.003	0.016	0.005	0.001
520.00	0.000	0.001	0.001	0.004	0.011	0.004	0.001	-0.000	0.001	0.012	0.008	0.025	0.003	0.016	0.005	0.001
521.00	-0.000	0.001	0.001	0.004	0.010	0.004	0.001	-0.000	0.001	0.012	0.008	0.024	0.003	0.016	0.005	0.001
522.00	-0.000	0.001	0.001	0.004	0.010	0.003	0.001	-0.000	0.001	0.012	0.008	0.024	0.003	0.015	0.005	0.001
523.00	-0.000	0.001	0.001	0.004	0.010	0.003	0.001	-0.000	0.001	0.012	0.008	0.023	0.003	0.015	0.005	0.001
524.00	-0.000	0.001	0.001	0.004	0.010	0.003	0.001	-0.000	0.001	0.012	0.007	0.023	0.003	0.015	0.005	0.001
525.00	-0.000	0.001	0.001	0.004	0.010	0.003	0.001	-0.000	0.001	0.012	0.007	0.023	0.003	0.015	0.005	0.001
526.00	-0.000	0.001	0.001	0.004	0.010	0.003	0.001	0.000	0.001	0.012	0.007	0.022	0.003	0.014	0.005	0.001
527.00	-0.000	0.001	0.001	0.004	0.010	0.003	0.001	-0.000	0.001	0.011	0.007	0.022	0.003	0.014	0.005	0.001
528.00	-0.000	0.001	0.001	0.004	0.010	0.003	0.001	-0.000	0.001	0.011	0.007	0.022	0.003	0.014	0.005	0.001
529.00	-0.000	0.001	0.001	0.004	0.009	0.003	0.001	-0.000	0.001	0.011	0.007	0.021	0.003	0.014	0.005	0.001
530.00	-0.000	0.001	0.001	0.004	0.009	0.003	0.001	-0.000	0.001	0.011	0.007	0.021	0.003	0.014	0.005	0.001
531.00	-0.000	0.001	0.001	0.004	0.009	0.003	0.001	-0.000	0.001	0.011	0.007	0.021	0.003	0.013	0.005	0.001
532.00	-0.000	0.001	0.001	0.004	0.009	0.003	0.001	-0.000	0.001	0.011	0.007	0.020	0.003	0.013	0.004	0.001
533.00	-0.000	0.001	0.001	0.004	0.009	0.003	0.001	-0.000	0.001	0.011	0.007	0.020	0.002	0.013	0.004	0.001
534.00	-0.000	0.001	0.001	0.004	0.009	0.003	0.001	-0.000	0.001	0.011	0.007	0.020	0.002	0.013	0.004	0.001
535.00	0.000	0.001	0.001	0.004	0.009	0.003	0.001	0.000	0.001	0.011	0.007	0.020	0.003	0.013	0.004	0.001
536.00	0.001	0.002	0.002	0.005	0.010	0.004	0.002	0.001	0.002	0.012	0.008	0.020	0.003	0.013	0.005	0.002
537.00	0.000	0.001	0.001	0.004	0.009	0.003	0.001	0.000	0.001	0.010	0.007	0.019	0.002	0.012	0.004	0.001
538.00	-0.000	0.001	0.001	0.004	0.009	0.003	0.001	0.000	0.001	0.010	0.007	0.019	0.002	0.012	0.004	0.001
539.00	-0.000	0.001	0.001	0.004	0.008	0.003	0.001	-0.000	0.001	0.010	0.007	0.018	0.002	0.012	0.004	0.001
540.00	-0.000	0.001	0.001	0.004	0.008	0.003	0.001	0.000	0.001	0.010	0.007	0.018	0.002	0.012	0.004	0.001
541.00	-0.000	0.001	0.001	0.004	0.008	0.003	0.001	0.000	0.001	0.010	0.007	0.018	0.002	0.011	0.004	0.001
542.00	-0.000	0.001	0.001	0.004	0.008	0.003	0.001	-0.000	0.001	0.010	0.006	0.018	0.002	0.011	0.004	0.001
543.00	-0.000	0.001	0.001	0.004	0.008	0.003	0.001	0.000	0.001	0.010	0.006	0.017	0.002	0.011	0.004	0.001
544.00	-0.000	0.001	0.001	0.004	0.008	0.003	0.001	0.000	0.001	0.010	0.006	0.017	0.002	0.011	0.004	0.001
545.00	-0.000	0.001	0.001	0.004	0.008	0.003	0.001	0.000	0.001	0.010	0.006	0.017	0.002	0.011	0.004	0.001
546.00	-0.000	0.001	0.001	0.003	0.008	0.003	0.001	-0.000	0.001	0.010	0.006	0.016	0.002	0.011	0.004	0.001
547.00	-0.000	0.001	0.001	0.004	0.008	0.003	0.001	0.000	0.001	0.010	0.006	0.016	0.002	0.010	0.004	0.001
548.00	-0.000	0.001	0.001	0.003	0.008	0.003	0.001	0.000	0.001	0.009	0.006	0.016	0.002	0.010	0.003	0.001
549.00	-0.000	0.001	0.001	0.003	0.008	0.003	0.001	0.000	0.001	0.009	0.006	0.016	0.002	0.010	0.004	0.001
550.00	-0.000	0.001	0.001	0.004	0.008	0.003	0.001	0.000	0.001	0.009	0.006	0.016	0.002	0.010	0.004	0.001
551.00	-0.000	0.001	0.001	0.003	0.007	0.003	0.001	-0.000	0.001	0.009	0.006	0.015	0.002	0.010	0.003	0.001
552.00	-0.000	0.001	0.001	0.004	0.007	0.003	0.001	-0.000	0.001	0.009	0.006	0.015	0.002	0.010	0.003	0.001
553.00	-0.000	0.001	0.001	0.004	0.007	0.003	0.001	0.000	0.001	0.009	0.006	0.015	0.002	0.010	0.003	0.001
554.00	-0.000	0.001	0.001	0.003	0.007	0.003	0.001	-0.000	0.001	0.009	0.006	0.015	0.002	0.010	0.003	0.001
555.00	-0.000	0.001	0.001	0.003	0.007	0.003	0.001	-0.000	0.001	0.009	0.006	0.015	0.002	0.009	0.003	0.001
556.00	-0.000	0.001	0.001	0.003	0.007	0.003	0.001	-0.000	0.001	0.009	0.006	0.014	0.002	0.009	0.003	0.001
557.00	-0.000	0.001	0.001	0.003	0.007	0.003	0.001	0.000	0.001	0.009	0.006	0.014	0.002	0.009	0.003	0.001
558.00	-0.000	0.001	0.001	0.003	0.007	0.003	0.001	0.000	0.001	0.009	0.006	0.014	0.002	0.009	0.003	0.001
559.00	-0.000	0.001	0.001	0.003	0.007	0.003	0.001	0.000	0.001	0.009	0.006	0.014	0.002	0.009	0.003	0.001
560.00	-0.000	0.001	0.001	0.003	0.007	0.002	0.001	-0.000	0.001	0.008	0.006	0.014	0.001	0.009	0.003	0.001
561.00	-0.000	0.001	0.001	0.003	0.007	0.002	0.001	-0.000	0.001	0.008	0.006	0.014	0.002	0.009	0.003	0.001
562.00	-0.000	0.001	0.001	0.003	0.007	0.002	0.001	-0.000	0.001	0.008	0.006	0.013	0.002	0.009	0.003	0.001
563.00	-0.000	0.001	0.001	0.003	0.007	0.003	0.001	0.000	0.001	0.008	0.005	0.013	0.002	0.009	0.003	0.001
564.00	-0.000	0.001	0.001	0.004	0.007	0.003	0.001	0.000	0.001	0.008	0.006	0.013	0.002	0.009	0.003	0.001
565.00	-0.000	0.001	0.001	0.004	0.007	0.003	0.001	0.000	0.001	0.008	0.006	0.013	0.002	0.009	0.003	0.001
566.00	0.000	0.001	0.001	0.004	0.007	0.003	0.001	0.000	0.001	0.008	0.006	0.013	0.002	0.009	0.003	0.001
567.00	0.000	0.001	0.001	0.003	0.006	0.002	0.001	0.000	0.001	0.008	0.005	0.013	0.002	0.008	0.003	0.001
568.00	-0.000	0.001	0.001	0.003	0.006	0.002	0.001	0.000	0.001	0.008	0.005	0.013	0.001	0.008	0.003	0.001
569.00	-0.000	0.001	0.001	0.003	0.006	0.002	0.001	0.000	0.001	0.008	0.005	0.012	0.001	0.008	0.003	0.001
570.00	0.000	0.001	0.001	0.004	0.006	0.002	0.001	0.000	0.001	0.008	0.005	0.012	0.001	0.008	0.003	0.001
571.00	-0.000	0.001	0.001	0.003	0.006	0.002	0.001	0.000	0.001	0.008	0.005	0.012	0.001	0.008	0.003	0.001
572.00	0.000	0.001	0.001	0.004	0.006	0.002	0.001	0.000	0.001	0.008	0.005	0.012	0.001	0.008	0.003	0.001
573.00	0.000	0.001	0.001	0.004	0.006	0.002	0.001	0.000	0.001	0.008	0.005	0.012	0.001	0.008	0.003	0.001
574.00	0.000	0.001	0.001	0.003	0.006	0.002	0.001	-0.000	0.001	0.008	0.005	0.012	0.001	0.008	0.003	0.000
575.00	-0.000	0.001	0.001	0.003	0.006	0.002	0.001	-0.000	0.001	0.008	0.005	0.012	0.001	0.008	0.003	0.000
576.00	0.000	0.001	0.001	0.004	0.006	0.002	0.001	0.000	0.001	0.008	0.005	0.012	0.001	0.008	0.003	0.001
577.00	0.000	0.001	0.001	0.004	0.006	0.002	0.001	0.000	0.001	0.008	0.005	0.011	0.001	0.008	0.003	0.001
578.00	0.000	0.001	0.001	0.003	0.006	0.002	0.001	0.000	0.001	0.008	0.005	0.011	0.001	0.008	0.003	0.001
579.00	0.000	0.001	0.001	0.003	0.006	0.002	0.001	0.000	0.001	0.007	0.005	0.011	0.001	0.007	0.003	0.001
580.00	0.000	0.001	0.001	0.004	0.006	0.002	0.001	0.000	0.001	0.007	0.005	0.011	0.001	0.007	0.003	0.001
581.00	0.000	0.001	0.001	0.004	0.006	0.002	0.001	0.000	0.001	0.007	0.005	0.011	0.001	0.007	0.003	0.001
582.00	0.000	0.001	0.001	0.003	0.006	0.002	0.001	0.000	0.001	0.007	0.005	0.011	0.001	0.007	0.003	0.001
583.00	0.000	0.001	0.001	0.003	0.006	0.002	0.001	0.000	0.001	0.007	0.005	0.011	0.001	0.007	0.003	0.001
584.00	0.000	0.001	0.001	0.003	0.005	0.002	0.001	0.000	0.001	0.007	0.005	0.011	0.001	0.007	0.003	0.000
585.00	0.000	0.001	0.001	0.003	0.005	0.002	0.001	0.000	0.001	0.007	0.005	0.010	0.001	0.007	0.002	0.000
586.00	0.000	0.001	0.001	0.003	0.005	0.002	0.000	0.000	0.001	0.007	0.005	0.010	0.001	0.007	0.002	0.000
587.00	0.000	0.001	0.001	0.003	0.005	0.002	0.000	0.000	0.001	0.007	0.005	0.010	0.001	0.007	0.002	0.000
588.00	0.000	0.001	0.001	0.003	0.005	0.002	0.001	0.000	0.001	0.007	0.005	0.010	0.001	0.007	0.002	0.000
589.00	0.000	0.001	0.001	0.003	0.005	0.002	0.001	0.000	0.001	0.007	0.005	0.010	0.001	0.007	0.002	0.000
590.00	-0.000	0.001	0.001	0.003	0.005	0.002	0.000	-0.000	0.001	0.007	0.005	0.010	0.001	0.007	0.002	0.000
591.00	-0.000	0.001	0.001	0.003	0.005	0.002	0.000	-0.000	0.001	0.007	0.005	0.010	0.001	0.007	0.002	0.000
592.00	0.000	0.001	0.001	0.003	0.005	0.002	0.001	0.000	0.001	0.007	0.005	0.010	0.001	0.007	0.002	0.000
593.00	-0.000	0.001	0.001	0.003	0.005	0.002	0.000	0.000	0.001	0.007	0.005	0.010	0.001	0.007	0.002	0.000
594.00	-0.000	0.001	0.001	0.003	0.005	0.002	0.000	0.000	0.001	0.007	0.005	0.010	0.001	0.006	0.002	0.000
595.00	-0.000	0.001	0.001	0.003	0.005	0.002	0.000	-0.000	0.001	0.007	0.004	0.009	0.001	0.006	0.002	0.000
596.00	0.000	0.001	0.001	0.003	0.005	0.002	0.000	0.000	0.001	0.007	0.005	0.009	0.001	0.006	0.002	0.001
597.00	-0.000	0.001	0.001	0.003	0.005	0.002	0.000	0.000	0.001	0.007	0.004	0.009	0.001	0.006	0.002	0.000
598.00	-0.000	0.001	0.001	0.003	0.005	0.002	0.000	0.000	0.001	0.007	0.004	0.009	0.001	0.006	0.002	0.000
599.00	-0.000	0.001	0.001	0.003	0.005	0.002	0.000	0.000	0.001	0.007	0.004	0.009	0.001	0.006	0.002	0.001
600.00	-0.000	0.001	0.001	0.003	0.005	0.002	0.000	0.000	0.001	0.006	0.004	0.009	0.001	0.006	0.002	0.000
601.00	-0.000	0.001	0.001	0.003	0.005	0.002	0.000	-0.000	0.001	0.006	0.004	0.009	0.001	0.006	0.002	0.000
602.00	-0.000	0.001	0.001	0.003	0.005	0.002	0.000	-0.000	0.001	0.006	0.004	0.009	0.001	0.006	0.002	0.000
603.00	-0.000	0.001	0.001	0.003	0.005	0.002	0.000	-0.000	0.001	0.006	0.004	0.009	0.001	0.006	0.002	0.000
604.00	-0.000	0.001	0.001	0.003	0.005	0.002	0.000	0.000	0.001	0.006	0.004	0.009	0.001	0.006	0.002	0.000
605.00	-0.000	0.001	0.001	0.003	0.004	0.002	0.000	-0.000	0.000	0.006	0.004	0.008	0.001	0.006	0.002	0.000
606.00	-0.000	0.001	0.001	0.003	0.004	0.002	0.000	-0.000	0.000	0.006	0.004	0.008	0.001	0.006	0.002	0.000
607.00	-0.000	0.001	0.001	0.003	0.004	0.002	0.000	0.000	0.000	0.006	0.004	0.008	0.001	0.006	0.002	0.000
608.00	-0.000	0.001	0.001	0.003	0.004	0.002	0.000	0.000	0.001	0.006	0.004	0.008	0.001	0.006	0.002	0.000
609.00	-0.000	0.001	0.001	0.003	0.004	0.002	0.000	0.000	0.000	0.006	0.004	0.008	0.001	0.006	0.002	0.000
610.00	-0.000	0.001	0.001	0.003	0.004	0.002	0.000	0.000	0.000	0.006	0.004	0.008	0.001	0.005	0.002	0.000
611.00	-0.000	0.001	0.001	0.003	0.004	0.002	0.000	0.000	0.000	0.006	0.004	0.008	0.001	0.005	0.002	0.000
612.00	-0.000	0.001	0.001	0.003	0.004	0.002	0.000	0.000	0.001	0.006	0.004	0.008	0.001	0.005	0.002	0.000
613.00	-0.000	0.001	0.001	0.003	0.004	0.002	0.000	0.000	0.001	0.006	0.004	0.008	0.001	0.005	0.002	0.000
614.00	-0.000	0.001	0.001	0.003	0.004	0.002	0.000	0.000	0.000	0.006	0.004	0.008	0.001	0.005	0.002	0.000
615.00	-0.000	0.001	0.001	0.003	0.004	0.002	0.000	0.000	0.000	0.006	0.004	0.008	0.001	0.005	0.002	0.000
616.00	-0.000	0.001	0.001	0.003	0.004	0.002	0.000	0.000	0.000	0.006	0.004	0.008	0.001	0.005	0.002	0.000
617.00	-0.000	0.001	0.001	0.003	0.004	0.002	0.000	-0.000	0.000	0.006	0.004	0.008	0.001	0.005	0.002	0.000
618.00	-0.000	0.001	0.001	0.003	0.004	0.002	0.000	0.000	0.000	0.006	0.004	0.008	0.001	0.005	0.002	0.000
619.00	-0.000	0.001	0.000	0.003	0.004	0.002	0.000	-0.000	0.000	0.006	0.004	0.007	0.001	0.005	0.002	0.000
620.00	-0.000	0.001	0.001	0.003	0.004	0.002	0.000	0.000	0.000	0.006	0.004	0.007	0.001	0.005	0.002	0.000
621.00	-0.000	0.001	0.001	0.003	0.004	0.002	0.000	0.000	0.000	0.006	0.004	0.007	0.001	0.005	0.002	0.000
622.00	-0.000	0.001	0.001	0.003	0.004	0.002	0.000	-0.000	0.000	0.005	0.004	0.007	0.001	0.005	0.002	0.000
623.00	-0.000	0.001	0.001	0.003	0.004	0.002	0.000	0.000	0.000	0.005	0.004	0.007	0.001	0.005	0.002	0.000
624.00	-0.000	0.001	0.001	0.003	0.004	0.002	0.000	0.000	0.000	0.005	0.004	0.007	0.001	0.005	0.002	0.000
625.00	-0.000	0.001	0.000	0.003	0.004	0.002	0.000	-0.000	0.000	0.005	0.004	0.007	0.001	0.005	0.002	0.000
626.00	-0.000	0.001	0.000	0.003	0.004	0.002	0.000	-0.000	0.000	0.005	0.004	0.007	0.001	0.005	0.002	0.000
627.00	-0.000	0.001	0.001	0.003	0.004	0.002	0.000	0.000	0.000	0.005	0.004	0.007	0.001	0.005	0.002	0.000
628.00	-0.000	0.001	0.001	0.003	0.004	0.002	0.000	0.000	0.000	0.005	0.004	0.007	0.001	0.005	0.002	0.000
629.00	-0.000	0.001	0.001	0.003	0.004	0.002	0.000	0.000	0.000	0.005	0.004	0.007	0.001	0.005	0.002	0.000
630.00	-0.000	0.001	0.000	0.003	0.004	0.002	0.000	0.000	0.000	0.005	0.004	0.007	0.001	0.005	0.002	0.000
631.00	-0.000	0.001	0.001	0.003	0.004	0.002	0.000	0.000	0.000	0.005	0.004	0.007	0.001	0.004	0.002	0.000
632.00	-0.000	0.001	0.001	0.003	0.004	0.002	0.000	0.000	0.000	0.005	0.004	0.007	0.001	0.005	0.002	0.000
633.00	-0.000	0.001	0.001	0.003	0.004	0.002	0.000	0.000	0.000	0.005	0.004	0.007	0.001	0.004	0.002	0.000
634.00	-0.000	0.001	0.001	0.003	0.003	0.002	0.000	0.000	0.000	0.005	0.004	0.006	0.001	0.004	0.002	0.000
635.00	-0.000	0.001	0.001	0.003	0.003	0.002	0.000	0.000	0.000	0.005	0.004	0.006	0.001	0.004	0.002	0.000
636.00	-0.000	0.001	0.000	0.003	0.003	0.001	0.000	-0.000	0.000	0.005	0.004	0.006	0.000	0.004	0.002	0.000
637.00	-0.000	0.001	0.000	0.003	0.003	0.001	0.000	-0.000	0.000	0.005	0.003	0.006	0.000	0.004	0.002	0.000
638.00	-0.000	0.001	0.000	0.003	0.003	0.001	0.000	-0.000	0.000	0.005	0.003	0.006	0.000	0.004	0.002	0.000
639.00	-0.000	0.001	0.000	0.003	0.003	0.001	0.000	-0.000	0.000	0.005	0.003	0.006	0.000	0.004	0.002	0.000
640.00	-0.000	0.001	0.001	0.003	0.003	0.001	0.000	0.000	0.000	0.005	0.003	0.006	0.000	0.004	0.002	0.000
641.00	-0.000	0.001	0.001	0.003	0.003	0.001	0.000	-0.000	0.000	0.005	0.003	0.006	0.001	0.004	0.002	0.000
642.00	-0.000	0.001	0.001	0.003	0.003	0.001	0.000	-0.000	0.000	0.005	0.003	0.006	0.000	0.004	0.002	0.000
643.00	-0.000	0.001	0.000	0.003	0.003	0.001	0.000	-0.000	0.000	0.005	0.003	0.006	0.000	0.004	0.001	0.000
644.00	-0.000	0.001	0.001	0.003	0.003	0.001	0.000	-0.000	0.000	0.005	0.003	0.006	0.000	0.004	0.002	0.000
645.00	-0.000	0.001	0.001	0.003	0.003	0.001	0.000	-0.000	0.000	0.005	0.003	0.006	0.001	0.004	0.002	0.000
646.00	-0.000	0.001	0.001	0.003	0.003	0.001	0.000	0.000	0.000	0.005	0.003	0.006	0.001	0.004	0.002	0.000
647.00	-0.000	0.001	0.001	0.003	0.003	0.001	0.000	0.000	0.000	0.005	0.003	0.006	0.001	0.004	0.002	0.000
648.00	-0.000	0.001	0.001	0.003	0.003	0.001	0.000	0.000	0.000	0.005	0.003	0.006	0.001	0.004	0.001	0.000
649.00	-0.000	0.001	0.001	0.003	0.003	0.001	0.000	0.000	0.000	0.005	0.003	0.006	0.001	0.004	0.002	0.000
650.00	-0.000	0.001	0.001	0.003	0.003	0.002	0.000	0.000	0.000	0.005	0.003	0.006	0.001	0.004	0.002	0.000
651.00	-0.000	0.001	0.001	0.003	0.003	0.002	0.000	0.000	0.000	0.005	0.003	0.006	0.001	0.004	0.002	0.000
652.00	-0.000	0.001	0.001	0.003	0.003	0.001	0.000	0.000	0.000	0.005	0.003	0.005	0.001	0.004	0.002	0.000
653.00	0.000	0.001	0.001	0.003	0.003	0.001	0.000	0.000	0.000	0.005	0.003	0.005	0.001	0.004	0.002	0.000
654.00	0.000	0.001	0.001	0.003	0.003	0.001	0.000	0.000	0.000	0.005	0.003	0.005	0.001	0.004	0.002	0.000
655.00	0.000	0.001	0.001	0.003	0.003	0.002	0.000	0.000	0.001	0.005	0.004	0.006	0.001	0.004	0.002	0.000
656.00	0.000	0.001	0.001	0.003	0.003	0.001	0.000	0.000	0.001	0.004	0.003	0.005	0.001	0.004	0.002	0.000
657.00	0.000	0.001	0.001	0.003	0.003	0.001	0.000	0.000	0.000	0.004	0.003	0.005	0.001	0.004	0.001	0.000
658.00	0.000	0.001	0.001	0.003	0.003	0.001	0.000	0.000	0.001	0.004	0.003	0.005	0.001	0.004	0.002	0.000
659.00	0.000	0.001	0.001	0.003	0.003	0.001	0.000	0.000	0.000	0.004	0.003	0.005	0.001	0.004	0.001	0.000
660.00	0.000	0.001	0.001	0.003	0.003	0.001	0.000	0.000	0.001	0.004	0.003	0.005	0.001	0.004	0.001	0.000
661.00	0.000	0.001	0.001	0.003	0.003	0.001	0.000	0.000	0.001	0.004	0.003	0.005	0.001	0.004	0.001	0.000
662.00	0.000	0.001	0.001	0.003	0.003	0.001	0.000	0.000	0.001	0.004	0.003	0.005	0.001	0.004	0.002	0.000
663.00	0.000	0.001	0.001	0.003	0.003	0.001	0.000	0.000	0.001	0.004	0.003	0.005	0.001	0.004	0.001	0.000
664.00	0.000	0.001	0.001	0.003	0.003	0.001	0.000	0.000	0.001	0.004	0.003	0.005	0.001	0.004	0.001	0.000
665.00	0.000	0.001	0.001	0.003	0.003	0.001	0.000	0.000	0.001	0.004	0.003	0.005	0.001	0.004	0.001	0.000
666.00	0.000	0.001	0.001	0.003	0.003	0.001	0.000	0.000	0.000	0.004	0.003	0.005	0.001	0.004	0.001	0.000
667.00	0.000	0.001	0.001	0.003	0.003	0.001	0.000	0.000	0.001	0.004	0.003	0.005	0.001	0.004	0.001	0.000
668.00	0.000	0.001	0.001	0.003	0.003	0.001	0.000	0.000	0.001	0.004	0.003	0.005	0.001	0.004	0.001	0.000
669.00	0.000	0.001	0.001	0.003	0.003	0.001	0.000	0.000	0.001	0.004	0.003	0.005	0.001	0.004	0.001	0.000
670.00	0.000	0.001	0.001	0.003	0.003	0.001	0.000	0.000	0.001	0.004	0.003	0.005	0.001	0.004	0.001	0.000
671.00	0.000	0.001	0.001	0.003	0.003	0.001	0.000	0.000	0.000	0.004	0.003	0.005	0.001	0.004	0.001	0.000
672.00	0.000	0.001	0.001	0.003	0.003	0.001	0.000	0.000	0.000	0.004	0.003	0.005	0.001	0.004	0.001	0.000
673.00	0.000	0.001	0.001	0.003	0.003	0.001	0.000	0.000	0.001	0.004	0.003	0.005	0.001	0.003	0.001	0.000
674.00	0.000	0.001	0.001	0.003	0.003	0.001	0.000	0.000	0.001	0.004	0.003	0.005	0.001	0.003	0.001	0.000
675.00	0.000	0.001	0.001	0.003	0.003	0.001	0.000	0.000	0.001	0.004	0.003	0.005	0.001	0.003	0.001	0.000
676.00	0.000	0.001	0.001	0.003	0.003	0.001	0.000	0.000	0.000	0.004	0.003	0.005	0.001	0.003	0.001	0.000
677.00	0.000	0.001	0.001	0.003	0.003	0.001	0.000	0.000	0.000	0.004	0.003	0.005	0.001	0.003	0.001	0.000
678.00	0.000	0.001	0.001	0.003	0.003	0.001	0.000	0.000	0.001	0.004	0.003	0.005	0.001	0.003	0.001	0.000
679.00	0.000	0.001	0.001	0.003	0.003	0.001	0.000	0.000	0.000	0.004	0.003	0.004	0.001	0.003	0.001	0.000
680.00	0.000	0.001	0.001	0.004	0.003	0.001	0.000	0.000	0.001	0.004	0.003	0.004	0.001	0.003	0.001	0.000
681.00	0.000	0.001	0.001	0.003	0.003	0.001	0.000	0.000	0.001	0.004	0.003	0.004	0.001	0.003	0.001	0.000
682.00	-0.000	0.001	0.001	0.003	0.002	0.001	0.000	0.000	0.000	0.004	0.003	0.004	0.000	0.003	0.001	0.000
683.00	-0.000	0.001	0.001	0.003	0.002	0.001	0.000	0.000	0.000	0.004	0.003	0.004	0.000	0.003	0.001	0.000
684.00	-0.000	0.001	0.001	0.003	0.002	0.001	0.000	0.000	0.000	0.004	0.003	0.004	0.000	0.003	0.001	0.000
685.00	0.000	0.001	0.001	0.003	0.002	0.001	0.000	0.000	0.000	0.004	0.003	0.004	0.001	0.003	0.001	0.000
686.00	0.000	0.001	0.001	0.003	0.002	0.001	0.000	0.000	0.000	0.004	0.003	0.004	0.001	0.003	0.001	0.000
687.00	0.000	0.001	0.001	0.004	0.002	0.001	0.000	0.000	0.001	0.004	0.003	0.004	0.001	0.003	0.001	0.000
688.00	-0.000	0.001	0.001	0.003	0.002	0.001	0.000	0.000	0.000	0.004	0.003	0.004	0.001	0.003	0.001	0.000
689.00	0.000	0.001	0.001	0.003	0.002	0.001	0.000	0.000	0.000	0.004	0.003	0.004	0.001	0.003	0.001	0.000
690.00	0.000	0.001	0.001	0.003	0.002	0.001	0.000	0.000	0.000	0.004	0.003	0.004	0.000	0.003	0.001	0.000
691.00	-0.000	0.001	0.001	0.003	0.002	0.001	0.000	0.000	0.000	0.004	0.003	0.004	0.000	0.003	0.001	0.000
692.00	0.000	0.001	0.001	0.003	0.002	0.001	0.000	0.000	0.000	0.004	0.003	0.004	0.000	0.003	0.001	0.000
693.00	-0.000	0.001	0.001	0.003	0.002	0.001	0.000	0.000	0.000	0.004	0.003	0.004	0.000	0.003	0.001	0.000
694.00	0.000	0.001	0.001	0.003	0.002	0.001	0.000	0.000	0.000	0.004	0.003	0.004	0.001	0.003	0.001	0.000
695.00	0.000	0.001	0.001	0.003	0.002	0.001	0.000	0.000	0.001	0.004	0.003	0.004	0.001	0.003	0.001	0.000
696.00	0.000	0.001	0.001	0.003	0.002	0.001	0.000	0.000	0.000	0.004	0.003	0.004	0.000	0.003	0.001	0.000
697.00	-0.000	0.001	0.001	0.003	0.002	0.001	0.000	0.000	0.000	0.004	0.003	0.004	0.000	0.003	0.001	0.000
698.00	-0.000	0.001	0.001	0.003	0.002	0.001	0.000	0.000	0.000	0.003	0.003	0.004	0.000	0.003	0.001	0.000
699.00	-0.000	0.001	0.001	0.003	0.002	0.001	0.000	0.000	0.000	0.003	0.003	0.004	0.000	0.003	0.001	0.000
700.00	0.000	0.001	0.001	0.003	0.002	0.001	0.000	0.000	0.000	0.004	0.003	0.004	0.000	0.003	0.001	0.000
701.00	0.000	0.001	0.001	0.003	0.002	0.001	0.000	0.000	0.000	0.003	0.003	0.004	0.000	0.003	0.001	0.000
702.00	-0.000	0.001	0.001	0.003	0.002	0.001	0.000	0.000	0.000	0.003	0.003	0.004	0.000	0.003	0.001	0.000
703.00	-0.000	0.001	0.001	0.003	0.002	0.001	0.000	0.000	0.000	0.003	0.003	0.004	0.000	0.003	0.001	0.000
704.00	-0.000	0.001	0.001	0.003	0.002	0.001	0.000	0.000	0.000	0.003	0.003	0.004	0.000	0.003	0.001	0.000
705.00	-0.000	0.001	0.001	0.003	0.002	0.001	0.000	0.000	0.000	0.003	0.003	0.004	0.000	0.003	0.001	0.000
706.00	-0.000	0.001	0.001	0.003	0.002	0.001	0.000	0.000	0.000	0.003	0.003	0.004	0.000	0.003	0.001	0.000
707.00	-0.000	0.001	0.001	0.003	0.002	0.001	0.000	0.000	0.000	0.003	0.003	0.004	0.000	0.003	0.001	0.000
708.00	-0.000	0.001	0.001	0.003	0.002	0.001	0.000	0.000	0.000	0.003	0.003	0.004	0.000	0.003	0.001	0.000
709.00	-0.000	0.001	0.001	0.003	0.002	0.001	0.000	0.000	0.000	0.003	0.003	0.004	0.000	0.003	0.001	0.000
710.00	-0.000	0.001	0.001	0.003	0.002	0.001	0.000	0.000	0.000	0.003	0.003	0.003	0.000	0.003	0.001	0.000
711.00	-0.000	0.001	0.001	0.003	0.002	0.001	0.000	0.000	0.000	0.003	0.003	0.003	0.000	0.003	0.001	0.000
712.00	-0.000	0.001	0.001	0.003	0.002	0.001	0.000	0.000	0.000	0.003	0.003	0.003	0.000	0.002	0.001	0.000
713.00	-0.000	0.001	0.001	0.003	0.002	0.001	0.000	0.000	0.000	0.003	0.003	0.003	0.000	0.002	0.001	0.000
714.00	-0.000	0.001	0.001	0.003	0.002	0.001	0.000	0.000	0.000	0.003	0.003	0.003	0.000	0.002	0.001	0.000
715.00	-0.000	0.001	0.001	0.003	0.002	0.001	0.000	0.000	0.000	0.003	0.003	0.003	0.000	0.002	0.001	0.000
716.00	-0.000	0.001	0.001	0.003	0.002	0.001	0.000	0.000	0.000	0.003	0.003	0.003	0.000	0.002	0.001	0.000
717.00	-0.000	0.001	0.001	0.003	0.002	0.001	0.000	0.000	0.000	0.003	0.003	0.003	0.000	0.002	0.001	0.000
718.00	-0.000	0.001	0.001	0.003	0.002	0.001	0.000	0.000	0.000	0.003	0.003	0.003	0.000	0.002	0.001	0.000
719.00	-0.000	0.001	0.001	0.003	0.002	0.001	0.000	0.000	0.000	0.003	0.002	0.003	0.000	0.002	0.001	0.000
720.00	-0.000	0.001	0.001	0.003	0.002	0.001	0.000	0.000	0.000	0.003	0.002	0.003	0.000	0.002	0.001	0.000
721.00	-0.000	0.001	0.001	0.003	0.002	0.001	0.000	0.000	0.000	0.003	0.003	0.003	0.000	0.002	0.001	0.000
722.00	-0.000	0.001	0.001	0.003	0.002	0.001	0.000	0.000	0.000	0.003	0.003	0.003	0.000	0.002	0.001	0.000
723.00	-0.000	0.001	0.001	0.003	0.002	0.001	0.000	0.000	0.000	0.003	0.003	0.003	0.000	0.002	0.001	0.000
724.00	-0.000	0.001	0.001	0.003	0.002	0.001	0.000	0.000	0.000	0.003	0.003	0.003	0.000	0.002	0.001	0.000
725.00	-0.000	0.000	0.001	0.003	0.002	0.001	0.000	0.000	0.000	0.003	0.002	0.003	0.000	0.002	0.001	0.000
726.00	-0.000	0.000	0.001	0.003	0.002	0.001	0.000	0.000	0.000	0.003	0.002	0.003	0.000	0.002	0.001	0.000
727.00	-0.000	0.000	0.001	0.003	0.002	0.001	0.000	0.000	0.000	0.003	0.002	0.003	0.000	0.002	0.001	0.000
728.00	-0.000	0.001	0.001	0.003	0.002	0.001	0.000	0.000	0.000	0.003	0.002	0.003	0.000	0.002	0.001	0.000
729.00	-0.000	0.000	0.001	0.003	0.002	0.001	0.000	0.000	0.000	0.003	0.002	0.003	0.000	0.002	0.001	0.000
730.00	-0.000	0.000	0.000	0.003	0.002	0.001	-0.000	0.000	0.000	0.003	0.002	0.003	0.000	0.002	0.001	0.000
731.00	-0.000	0.000	0.001	0.003	0.001	0.001	0.000	0.000	0.000	0.003	0.002	0.003	0.000	0.002	0.001	0.000
732.00	-0.000	0.001	0.001	0.003	0.002	0.001	0.000	0.000	0.000	0.003	0.002	0.003	0.000	0.002	0.001	0.000
733.00	-0.000	0.001	0.001	0.003	0.002	0.001	0.000	0.000	0.000	0.003	0.002	0.003	0.000	0.002	0.001	0.000
734.00	-0.000	0.001	0.001	0.003	0.002	0.001	0.000	0.000	0.000	0.003	0.002	0.003	0.000	0.002	0.001	0.000
735.00	-0.000	0.001	0.001	0.003	0.002	0.001	0.000	0.000	0.000	0.003	0.002	0.003	0.000	0.002	0.001	0.000
736.00	-0.000	0.001	0.001	0.003	0.002	0.001	0.000	0.000	0.000	0.003	0.002	0.003	0.000	0.002	0.001	0.000
737.00	-0.000	0.001	0.001	0.003	0.001	0.001	0.000	0.000	0.000	0.003	0.002	0.003	0.000	0.002	0.001	0.000
738.00	-0.000	0.000	0.001	0.003	0.002	0.001	0.000	0.000	0.000	0.003	0.002	0.003	0.000	0.002	0.001	0.000
739.00	-0.000	0.001	0.001	0.003	0.002	0.001	0.000	0.000	0.000	0.003	0.002	0.003	0.000	0.002	0.001	0.000
740.00	-0.000	0.001	0.001	0.003	0.001	0.001	0.000	0.000	0.000	0.003	0.002	0.003	0.000	0.002	0.001	0.000
741.00	-0.000	0.001	0.001	0.003	0.002	0.001	0.000	0.000	0.000	0.003	0.002	0.003	0.000	0.002	0.001	0.000
742.00	-0.000	0.001	0.001	0.003	0.002	0.001	0.000	0.000	0.000	0.003	0.002	0.003	0.000	0.002	0.001	0.000
743.00	-0.000	0.000	0.001	0.003	0.001	0.001	0.000	0.000	0.000	0.003	0.002	0.003	0.000	0.002	0.001	0.000
744.00	-0.000	0.000	0.001	0.003	0.001	0.001	0.000	0.000	0.000	0.003	0.002	0.003	0.000	0.002	0.001	0.000
745.00	-0.000	0.001	0.001	0.003	0.001	0.001	0.000	0.000	0.000	0.003	0.002	0.003	0.000	0.002	0.001	0.000
746.00	-0.000	0.001	0.001	0.003	0.002	0.001	0.000	0.000	0.000	0.003	0.002	0.003	0.000	0.002	0.001	0.000
747.00	-0.000	0.001	0.001	0.003	0.002	0.001	0.000	0.000	0.000	0.003	0.002	0.003	0.000	0.002	0.001	0.000
748.00	-0.000	0.000	0.001	0.003	0.001	0.001	-0.000	0.000	0.000	0.003	0.002	0.003	0.000	0.002	0.001	0.000
749.00	-0.000	0.001	0.001	0.003	0.001	0.001	0.000	0.000	0.000	0.003	0.002	0.003	0.000	0.002	0.001	0.000
750.00	-0.000	0.000	0.001	0.003	0.001	0.001	-0.000	0.000	0.000	0.003	0.002	0.003	0.000	0.002	0.001	0.000
751.00	-0.000	0.001	0.001	0.003	0.001	0.001	-0.000	0.000	0.000	0.003	0.002	0.003	0.000	0.002	0.001	0.000
752.00	-0.000	0.001	0.001	0.003	0.001	0.001	0.000	0.000	0.000	0.003	0.002	0.003	0.000	0.002	0.001	0.000
753.00	-0.000	0.001	0.001	0.003	0.002	0.001	0.000	0.000	0.000	0.003	0.002	0.003	0.000	0.002	0.001	0.000
754.00	-0.000	0.001	0.001	0.003	0.001	0.001	0.000	0.000	0.000	0.003	0.002	0.003	0.000	0.002	0.001	0.000
755.00	-0.000	0.001	0.001	0.003	0.001	0.001	0.000	0.000	0.000	0.003	0.002	0.003	0.000	0.002	0.001	0.000
756.00	0.000	0.001	0.001	0.003	0.001	0.001	0.000	0.000	0.000	0.003	0.002	0.003	0.000	0.002	0.001	0.000
757.00	-0.000	0.000	0.001	0.003	0.001	0.001	-0.000	0.000	0.000	0.002	0.002	0.002	0.000	0.002	0.001	0.000
758.00	-0.000	0.000	0.001	0.003	0.001	0.001	-0.000	0.000	0.000	0.002	0.002	0.002	0.000	0.002	0.001	0.000
759.00	0.000	0.001	0.001	0.003	0.002	0.001	0.000	0.000	0.000	0.003	0.002	0.003	0.000	0.002	0.001	0.000
760.00	0.001	0.002	0.002	0.004	0.003	0.002	0.001	0.001	0.001	0.004	0.003	0.004	0.001	0.003	0.002	0.001
761.00	0.000	0.001	0.001	0.003	0.002	0.001	0.000	0.001	0.001	0.003	0.002	0.003	0.001	0.002	0.001	0.001
762.00	0.000	0.001	0.001	0.003	0.002	0.001	0.000	0.000	0.000	0.003	0.002	0.003	0.000	0.002	0.001	0.000
763.00	-0.000	0.001	0.001	0.003	0.001	0.001	0.000	0.000	0.000	0.003	0.002	0.003	0.000	0.002	0.001	0.000
764.00	-0.000	0.001	0.001	0.003	0.002	0.001	0.000	0.000	0.000	0.003	0.002	0.003	0.000	0.002	0.001	0.000
765.00	-0.000	0.001	0.001	0.003	0.002	0.001	0.000	0.000	0.000	0.003	0.002	0.002	0.000	0.002	0.001	0.000
766.00	-0.000	0.000	0.001	0.003	0.001	0.001	0.000	0.000	0.000	0.003	0.002	0.002	0.000	0.002	0.001	0.000
767.00	-0.000	0.001	0.001	0.003	0.002	0.001	0.000	0.000	0.000	0.003	0.002	0.002	0.000	0.002	0.001	0.000
768.00	-0.000	0.001	0.001	0.003	0.002	0.001	0.000	0.000	0.000	0.003	0.002	0.003	0.000	0.002	0.001	0.000
769.00	0.000	0.001	0.001	0.003	0.002	0.001	0.000	0.000	0.000	0.003	0.002	0.003	0.000	0.002	0.001	0.000
770.00	0.000	0.001	0.001	0.003	0.002	0.001	0.000	0.000	0.000	0.003	0.002	0.002	0.000	0.002	0.001	0.000
771.00	0.000	0.001	0.001	0.003	0.002	0.001	0.000	0.000	0.000	0.003	0.002	0.002	0.000	0.002	0.001	0.000
772.00	0.000	0.001	0.001	0.003	0.002	0.001	0.000	0.000	0.000	0.003	0.002	0.002	0.000	0.002	0.001	0.000
773.00	-0.000	0.001	0.001	0.003	0.002	0.001	0.000	0.000	0.000	0.003	0.002	0.002	0.000	0.002	0.001	0.000
774.00	-0.000	0.001	0.001	0.003	0.002	0.001	0.000	0.000	0.000	0.003	0.002	0.002	0.000	0.002	0.001	0.000
775.00	-0.000	0.000	0.001	0.003	0.002	0.001	0.000	0.000	0.000	0.003	0.002	0.002	0.000	0.002	0.001	0.000
776.00	-0.000	0.000	0.001	0.003	0.002	0.001	0.000	0.000	0.000	0.003	0.002	0.002	0.000	0.002	0.001	0.000
777.00	-0.000	0.001	0.001	0.003	0.002	0.001	0.000	0.000	0.000	0.003	0.002	0.002	0.000	0.002	0.001	0.000
778.00	-0.000	0.001	0.001	0.003	0.002	0.001	0.000	0.000	0.000	0.003	0.002	0.002	0.000	0.002	0.001	0.000
779.00	0.000	0.001	0.001	0.003	0.002	0.001	0.000	0.000	0.000	0.003	0.002	0.002	0.000	0.002	0.001	0.000
780.00	0.000	0.001	0.001	0.003	0.002	0.001	0.000	0.000	0.000	0.003	0.002	0.002	0.000	0.002	0.001	0.000
781.00	-0.000	0.000	0.001	0.003	0.002	0.001	0.000	0.000	0.000	0.003	0.002	0.002	0.000	0.002	0.001	0.000
782.00	-0.000	0.000	0.001	0.003	0.002	0.001	0.000	0.000	0.000	0.003	0.002	0.002	0.000	0.002	0.001	0.000
783.00	-0.000	0.001	0.001	0.003	0.002	0.001	0.000	0.000	0.000	0.003	0.002	0.002	0.000	0.002	0.001	0.000
784.00	-0.000	0.001	0.001	0.003	0.002	0.001	0.000	0.000	0.000	0.003	0.002	0.002	0.000	0.002	0.001	0.000
785.00	0.000	0.001	0.001	0.003	0.002	0.001	0.000	0.000	0.000	0.003	0.002	0.002	0.000	0.002	0.001	0.000
786.00	0.000	0.001	0.001	0.003	0.002	0.001	0.000	0.000	0.000	0.003	0.002	0.002	0.000	0.002	0.001	0.000
787.00	-0.000	0.001	0.001	0.003	0.002	0.001	0.000	0.000	0.000	0.003	0.002	0.002	0.000	0.002	0.001	0.000
788.00	-0.000	0.001	0.001	0.003	0.002	0.001	0.000	0.000	0.000	0.003	0.002	0.002	0.000	0.002	0.001	0.000
789.00	0.000	0.001	0.001	0.003	0.002	0.001	0.000	0.000	0.000	0.003	0.002	0.002	0.000	0.002	0.001	0.000
790.00	0.000	0.001	0.001	0.003	0.002	0.001	0.000	0.000	0.001	0.003	0.002	0.002	0.000	0.002	0.001	0.000
791.00	0.000	0.001	0.001	0.003	0.002	0.001	0.000	0.000	0.001	0.003	0.002	0.002	0.000	0.002	0.001	0.000
792.00	0.000	0.001	0.001	0.003	0.002	0.001	0.000	0.000	0.000	0.003	0.002	0.002	0.000	0.002	0.001	0.000
793.00	-0.000	0.000	0.001	0.003	0.002	0.001	-0.000	0.000	0.000	0.003	0.002	0.002	0.000	0.002	0.001	0.000
794.00	-0.000	0.000	0.001	0.003	0.002	0.001	0.000	0.000	0.000	0.003	0.002	0.002	0.000	0.002	0.001	0.000
795.00	-0.000	0.001	0.001	0.003	0.002	0.001	0.000	0.000	0.000	0.003	0.002	0.002	0.000	0.002	0.001	0.000
796.00	-0.000	0.001	0.001	0.003	0.002	0.001	0.000	0.000	0.000	0.003	0.002	0.002	0.000	0.002	0.001	0.000
797.00	-0.000	0.001	0.001	0.003	0.002	0.001	0.000	0.000	0.000	0.003	0.002	0.002	0.000	0.002	0.001	0.000
798.00	-0.000	0.001	0.001	0.003	0.002	0.001	0.000	0.000	0.000	0.003	0.002	0.002	0.000	0.002	0.001	0.000
799.00	0.000	0.001	0.001	0.003	0.002	0.001	0.000	0.000	0.001	0.003	0.002	0.002	0.001	0.002	0.001	0.000
800.00	-0.000	0.001	0.001	0.003	0.002	0.001	0.000	0.000	0.000	0.003	0.002	0.002	0.000	0.002	0.001	0.000
801.00	0.000	0.001	0.001	0.003	0.002	0.001	0.000	0.000	0.001	0.003	0.002	0.002	0.000	0.002	0.001	0.000
802.00	0.000	0.001	0.001	0.003	0.002	0.001	0.000	0.000	0.001	0.003	0.002	0.002	0.001	0.002	0.001	0.000
803.00	0.000	0.001	0.001	0.003	0.002	0.001	0.000	0.000	0.000	0.003	0.002	0.002	0.000	0.002	0.001	0.000
804.00	-0.000	0.001	0.001	0.003	0.001	0.001	0.000	0.000	0.000	0.002	0.002	0.002	0.000	0.002	0.001	0.000
805.00	-0.000	0.001	0.001	0.003	0.001	0.001	0.000	0.000	0.000	0.002	0.002	0.002	0.000	0.002	0.001	0.000
806.00	0.000	0.001	0.001	0.003	0.002	0.001	0.000	0.000	0.001	0.003	0.002	0.002	0.000	0.002	0.001	0.000
807.00	0.000	0.001	0.001	0.003	0.002	0.001	0.000	0.000	0.000	0.003	0.002	0.002	0.000	0.002	0.001	0.000
808.00	0.000	0.001	0.001	0.003	0.002	0.001	0.000	0.000	0.001	0.003	0.002	0.002	0.000	0.002	0.001	0.000
809.00	-0.000	0.001	0.001	0.003	0.002	0.001	0.000	0.000	0.001	0.003	0.002	0.002	0.000	0.002	0.001	0.000
810.00	0.000	0.001	0.001	0.003	0.002	0.001	0.000	0.000	0.001	0.003	0.002	0.002	0.001	0.002	0.001	0.000
811.00	0.000	0.001	0.001	0.003	0.002	0.001	0.000	0.000	0.000	0.003	0.002	0.002	0.000	0.002	0.001	0.000
812.00	0.000	0.001	0.001	0.003	0.002	0.001	0.000	0.000	0.000	0.003	0.002	0.002	0.000	0.002	0.001	0.000
813.00	0.000	0.001	0.001	0.003	0.001	0.001	0.000	0.000	0.000	0.003	0.002	0.002	0.000	0.002	0.001	0.000
814.00	0.000	0.001	0.001	0.003	0.001	0.001	0.000	0.000	0.000	0.002	0.002	0.002	0.000	0.002	0.001	0.000
815.00	0.000	0.001	0.001	0.003	0.001	0.001	0.000	0.000	0.001	0.003	0.002	0.002	0.000	0.002	0.001	0.000
816.00	0.000	0.001	0.001	0.003	0.001	0.001	0.000	0.000	0.001	0.003	0.002	0.002	0.000	0.002	0.001	0.000
817.00	0.000	0.001	0.001	0.003	0.001	0.001	0.000	0.000	0.000	0.002	0.002	0.002	0.000	0.002	0.001	0.000
818.00	0.000	0.001	0.001	0.003	0.001	0.001	0.000	0.000	0.000	0.002	0.002	0.002	0.000	0.002	0.001	0.000
819.00	0.000	0.001	0.001	0.003	0.001	0.001	0.000	0.000	0.000	0.002	0.002	0.002	0.000	0.002	0.001	0.000
820.00	0.000	0.001	0.001	0.003	0.001	0.001	0.000	0.000	0.000	0.002	0.002	0.002	0.000	0.002	0.001	0.000
821.00	0.000	0.001	0.001	0.003	0.001	0.001	0.000	0.000	0.000	0.002	0.002	0.002	0.000	0.002	0.001	0.000
822.00	0.000	0.001	0.001	0.003	0.001	0.001	0.000	0.000	0.000	0.002	0.002	0.002	0.000	0.002	0.001	0.000
823.00	0.000	0.001	0.001	0.003	0.001	0.001	0.000	0.000	0.000	0.003	0.002	0.002	0.000	0.002	0.001	0.000
824.00	0.000	0.001	0.001	0.003	0.001	0.001	0.000	0.000	0.000	0.003	0.002	0.002	0.000	0.002	0.001	0.000
825.00	0.000	0.001	0.001	0.003	0.002	0.001	0.000	0.000	0.000	0.003	0.002	0.002	0.000	0.002	0.001	0.000
826.00	0.000	0.001	0.001	0.003	0.002	0.001	0.000	0.000	0.000	0.003	0.002	0.002	0.000	0.002	0.001	0.000
827.00	0.000	0.001	0.001	0.003	0.002	0.001	0.000	0.000	0.001	0.003	0.002	0.002	0.000	0.002	0.001	0.000
828.00	0.000	0.001	0.001	0.003	0.002	0.001	0.000	0.000	0.000	0.002	0.002	0.002	0.000	0.002	0.001	0.000
829.00	0.000	0.001	0.001	0.003	0.001	0.001	0.000	0.000	0.000	0.002	0.002	0.002	0.000	0.002	0.001	0.000
830.00	0.000	0.001	0.001	0.003	0.001	0.001	0.000	0.000	0.000	0.002	0.002	0.002	0.000	0.002	0.001	0.000
831.00	0.000	0.001	0.001	0.003	0.001	0.001	0.000	0.000	0.000	0.002	0.002	0.002	0.000	0.002	0.001	0.000
832.00	0.000	0.001	0.001	0.003	0.001	0.001	0.000	0.000	0.000	0.002	0.002	0.002	0.000	0.002	0.001	0.000
833.00	0.000	0.001	0.001	0.003	0.001	0.001	0.000	0.000	0.000	0.002	0.002	0.002	0.000	0.002	0.001	0.000
834.00	0.000	0.001	0.001	0.003	0.001	0.001	0.000	0.000	0.000	0.002	0.002	0.002	0.000	0.002	0.001	0.000
835.00	0.000	0.001	0.001	0.003	0.001	0.001	0.000	0.000	0.000	0.002	0.002	0.002	0.000	0.002	0.001	0.000
836.00	0.000	0.001	0.001	0.003	0.001	0.001	0.000	0.001	0.000	0.002	0.002	0.002	0.000	0.002	0.001	0.000
837.00	0.000	0.001	0.001	0.003	0.001	0.001	0.000	0.001	0.000	0.002	0.002	0.002	0.000	0.002	0.001	0.000
838.00	0.000	0.001	0.001	0.003	0.001	0.001	0.000	0.000	0.000	0.002	0.002	0.002	0.000	0.002	0.001	0.000
839.00	0.000	0.001	0.001	0.003	0.001	0.001	0.000	0.000	0.000	0.002	0.002	0.002	0.000	0.002	0.001	0.000
840.00	0.000	0.001	0.001	0.003	0.001	0.001	0.000	0.000	0.000	0.002	0.002	0.002	0.000	0.001	0.001	0.000
841.00	0.000	0.001	0.001	0.003	0.001	0.001	0.000	0.001	0.000	0.002	0.002	0.002	0.000	0.002	0.001	0.000
842.00	0.000	0.001	0.001	0.003	0.001	0.001	0.000	0.001	0.000	0.002	0.002	0.002	0.000	0.002	0.001	0.000
843.00	0.000	0.001	0.001	0.003	0.001	0.001	0.000	0.000	0.000	0.002	0.002	0.002	0.000	0.001	0.001	0.000
844.00	0.000	0.001	0.001	0.003	0.001	0.001	0.000	0.000	0.000	0.002	0.002	0.002	0.000	0.001	0.001	0.000
845.00	0.000	0.001	0.001	0.003	0.001	0.001	0.000	0.000	0.000	0.002	0.002	0.002	0.000	0.001	0.001	0.000
846.00	0.000	0.001	0.001	0.003	0.001	0.001	0.000	0.000	0.000	0.002	0.002	0.002	0.000	0.001	0.001	0.000
847.00	0.000	0.001	0.001	0.003	0.001	0.001	0.000	0.000	0.000	0.002	0.002	0.002	0.000	0.001	0.001	0.000
848.00	0.000	0.001	0.001	0.003	0.001	0.001	0.000	0.000	0.000	0.002	0.002	0.002	0.000	0.002	0.001	0.000
849.00	0.000	0.001	0.001	0.003	0.001	0.001	0.000	0.000	0.000	0.002	0.002	0.002	0.000	0.001	0.001	0.000
850.00	0.000	0.001	0.001	0.003	0.001	0.001	0.000	0.000	0.000	0.002	0.002	0.002	0.000	0.002	0.001	0.000
