Wavelength nm.	RawData ...	RawData ...	RawData ...	RawData ...	RawData ...	RawData ...	RawData ...	RawData ...
190.00	0.002	0.475	0.429	0.439	0.474	0.182	0.428	0.183
191.00	0.000	0.434	0.388	0.401	0.437	0.168	0.389	0.173
192.00	0.001	0.399	0.352	0.368	0.404	0.159	0.356	0.162
193.00	0.001	0.358	0.315	0.328	0.369	0.149	0.320	0.150
194.00	0.000	0.326	0.286	0.298	0.342	0.142	0.293	0.141
195.00	0.001	0.296	0.261	0.271	0.317	0.135	0.268	0.134
196.00	0.001	0.272	0.239	0.249	0.295	0.130	0.247	0.128
197.00	0.001	0.250	0.220	0.230	0.276	0.126	0.229	0.122
198.00	0.000	0.231	0.202	0.213	0.260	0.122	0.213	0.117
199.00	0.001	0.216	0.189	0.199	0.247	0.119	0.199	0.113
200.00	0.001	0.202	0.178	0.186	0.236	0.116	0.188	0.110
201.00	0.000	0.190	0.167	0.175	0.225	0.113	0.177	0.106
202.00	0.000	0.179	0.159	0.165	0.216	0.110	0.169	0.103
203.00	0.001	0.170	0.152	0.158	0.209	0.108	0.162	0.101
204.00	0.001	0.162	0.145	0.151	0.201	0.106	0.155	0.099
205.00	0.001	0.154	0.139	0.145	0.194	0.104	0.149	0.096
206.00	0.001	0.148	0.134	0.139	0.188	0.102	0.144	0.094
207.00	0.001	0.143	0.130	0.135	0.183	0.100	0.140	0.093
208.00	0.001	0.139	0.126	0.131	0.178	0.099	0.136	0.091
209.00	0.001	0.134	0.122	0.127	0.172	0.096	0.131	0.089
210.00	0.000	0.130	0.119	0.123	0.166	0.095	0.128	0.087
211.00	0.000	0.126	0.116	0.120	0.161	0.093	0.125	0.085
212.00	0.001	0.122	0.113	0.117	0.155	0.091	0.122	0.083
213.00	0.000	0.118	0.110	0.114	0.150	0.089	0.119	0.081
214.00	0.000	0.115	0.108	0.111	0.145	0.088	0.116	0.080
215.00	0.001	0.113	0.105	0.109	0.139	0.086	0.113	0.079
216.00	0.001	0.110	0.103	0.106	0.134	0.085	0.111	0.077
217.00	0.001	0.107	0.100	0.104	0.129	0.083	0.108	0.075
218.00	0.001	0.104	0.098	0.101	0.124	0.082	0.106	0.074
219.00	0.001	0.102	0.096	0.099	0.119	0.081	0.104	0.073
220.00	0.001	0.100	0.094	0.097	0.115	0.079	0.102	0.071
221.00	0.001	0.097	0.093	0.095	0.110	0.078	0.100	0.070
222.00	0.001	0.095	0.091	0.093	0.106	0.077	0.098	0.069
223.00	0.001	0.093	0.089	0.092	0.102	0.076	0.097	0.068
224.00	0.001	0.091	0.087	0.090	0.099	0.075	0.095	0.067
225.00	0.001	0.090	0.086	0.088	0.095	0.074	0.093	0.066
226.00	0.001	0.088	0.084	0.086	0.092	0.072	0.091	0.065
227.00	0.001	0.086	0.083	0.085	0.089	0.071	0.090	0.064
228.00	0.001	0.084	0.081	0.083	0.086	0.070	0.088	0.062
229.00	0.001	0.083	0.080	0.082	0.084	0.069	0.087	0.061
230.00	0.001	0.081	0.078	0.080	0.082	0.068	0.085	0.060
231.00	0.000	0.079	0.077	0.079	0.079	0.067	0.084	0.059
232.00	0.000	0.078	0.076	0.077	0.077	0.066	0.082	0.058
233.00	0.001	0.077	0.074	0.076	0.076	0.065	0.081	0.057
234.00	0.001	0.075	0.073	0.074	0.074	0.064	0.080	0.057
235.00	0.001	0.074	0.072	0.073	0.073	0.063	0.078	0.056
236.00	0.001	0.073	0.071	0.072	0.071	0.063	0.077	0.055
237.00	0.000	0.071	0.070	0.071	0.070	0.062	0.076	0.054
238.00	0.000	0.070	0.069	0.070	0.068	0.061	0.075	0.053
239.00	0.000	0.069	0.068	0.069	0.067	0.060	0.073	0.053
240.00	0.000	0.068	0.067	0.068	0.066	0.059	0.072	0.052
241.00	0.000	0.067	0.066	0.067	0.065	0.059	0.071	0.051
242.00	0.000	0.066	0.065	0.066	0.064	0.058	0.070	0.050
243.00	0.000	0.066	0.065	0.065	0.063	0.057	0.070	0.050
244.00	0.000	0.065	0.064	0.065	0.063	0.056	0.069	0.049
245.00	0.000	0.064	0.063	0.064	0.062	0.056	0.068	0.048
246.00	0.000	0.063	0.062	0.063	0.061	0.055	0.067	0.048
247.00	0.000	0.063	0.062	0.063	0.061	0.054	0.067	0.047
248.00	0.000	0.062	0.061	0.062	0.060	0.054	0.066	0.047
249.00	0.000	0.062	0.061	0.062	0.059	0.053	0.065	0.046
250.00	0.000	0.061	0.060	0.061	0.059	0.053	0.065	0.046
251.00	0.001	0.060	0.060	0.061	0.058	0.052	0.064	0.046
252.00	0.000	0.060	0.059	0.060	0.058	0.052	0.064	0.045
253.00	0.000	0.059	0.059	0.060	0.057	0.051	0.063	0.045
254.00	0.000	0.059	0.058	0.059	0.057	0.051	0.063	0.044
255.00	0.000	0.058	0.058	0.059	0.056	0.050	0.062	0.044
256.00	0.001	0.058	0.057	0.058	0.055	0.050	0.062	0.043
257.00	0.000	0.057	0.057	0.058	0.055	0.049	0.061	0.043
258.00	0.001	0.057	0.056	0.058	0.054	0.049	0.061	0.043
259.00	0.001	0.056	0.056	0.057	0.054	0.049	0.060	0.042
260.00	0.000	0.056	0.055	0.056	0.053	0.048	0.060	0.042
261.00	0.000	0.055	0.055	0.056	0.053	0.048	0.059	0.041
262.00	0.000	0.054	0.054	0.055	0.052	0.047	0.058	0.041
263.00	0.000	0.054	0.054	0.055	0.051	0.047	0.058	0.041
264.00	0.000	0.053	0.053	0.054	0.051	0.046	0.057	0.040
265.00	0.000	0.053	0.053	0.054	0.050	0.046	0.057	0.040
266.00	0.000	0.052	0.052	0.053	0.049	0.045	0.056	0.039
267.00	0.000	0.051	0.051	0.052	0.048	0.045	0.055	0.039
268.00	0.000	0.051	0.050	0.052	0.048	0.045	0.055	0.039
269.00	0.000	0.050	0.050	0.051	0.047	0.044	0.054	0.038
270.00	0.000	0.049	0.049	0.050	0.047	0.044	0.053	0.038
271.00	0.000	0.048	0.048	0.050	0.046	0.043	0.053	0.037
272.00	0.000	0.048	0.048	0.049	0.045	0.043	0.052	0.037
273.00	0.001	0.047	0.047	0.048	0.045	0.043	0.051	0.036
274.00	0.001	0.046	0.046	0.047	0.044	0.042	0.051	0.036
275.00	0.001	0.046	0.046	0.047	0.043	0.042	0.050	0.036
276.00	0.000	0.045	0.045	0.046	0.042	0.041	0.049	0.035
277.00	0.001	0.044	0.044	0.045	0.042	0.041	0.049	0.035
278.00	0.000	0.043	0.043	0.044	0.041	0.040	0.048	0.034
279.00	0.000	0.042	0.042	0.044	0.040	0.040	0.047	0.034
280.00	0.000	0.042	0.042	0.043	0.040	0.040	0.046	0.034
281.00	0.000	0.041	0.041	0.042	0.039	0.039	0.045	0.033
282.00	0.000	0.040	0.040	0.041	0.038	0.039	0.044	0.033
283.00	0.000	0.040	0.039	0.040	0.037	0.038	0.044	0.032
284.00	0.000	0.039	0.038	0.040	0.036	0.038	0.043	0.032
285.00	0.000	0.038	0.038	0.039	0.036	0.037	0.042	0.031
286.00	0.000	0.037	0.037	0.038	0.035	0.037	0.042	0.031
287.00	0.000	0.036	0.036	0.037	0.034	0.036	0.040	0.030
288.00	0.000	0.035	0.035	0.036	0.034	0.036	0.039	0.030
289.00	0.000	0.035	0.035	0.036	0.033	0.035	0.039	0.029
290.00	0.000	0.034	0.034	0.035	0.032	0.035	0.038	0.029
291.00	0.000	0.033	0.033	0.034	0.032	0.034	0.037	0.028
292.00	0.000	0.032	0.032	0.033	0.031	0.034	0.036	0.028
293.00	0.000	0.032	0.032	0.032	0.030	0.033	0.036	0.027
294.00	0.000	0.031	0.031	0.032	0.030	0.033	0.035	0.027
295.00	0.000	0.030	0.030	0.031	0.029	0.032	0.034	0.027
296.00	0.000	0.030	0.030	0.030	0.028	0.032	0.033	0.026
297.00	0.000	0.029	0.029	0.030	0.028	0.032	0.033	0.026
298.00	0.000	0.029	0.029	0.029	0.027	0.031	0.033	0.025
299.00	0.000	0.028	0.028	0.028	0.027	0.031	0.032	0.025
300.00	0.000	0.027	0.027	0.028	0.026	0.030	0.031	0.024
301.00	0.000	0.027	0.027	0.027	0.026	0.030	0.031	0.024
302.00	0.000	0.026	0.026	0.027	0.025	0.030	0.030	0.024
303.00	0.000	0.026	0.026	0.026	0.025	0.029	0.030	0.024
304.00	0.000	0.025	0.025	0.026	0.024	0.029	0.029	0.023
305.00	0.000	0.025	0.025	0.025	0.024	0.028	0.028	0.023
306.00	0.000	0.024	0.024	0.024	0.023	0.028	0.028	0.022
307.00	0.000	0.024	0.023	0.024	0.023	0.028	0.028	0.022
308.00	0.000	0.023	0.023	0.023	0.022	0.027	0.027	0.022
309.00	0.000	0.023	0.022	0.023	0.022	0.027	0.026	0.021
310.00	0.000	0.022	0.022	0.023	0.022	0.027	0.026	0.021
311.00	0.000	0.022	0.022	0.022	0.021	0.026	0.026	0.021
312.00	0.000	0.022	0.022	0.022	0.021	0.026	0.025	0.020
313.00	0.000	0.021	0.021	0.022	0.021	0.026	0.025	0.020
314.00	0.000	0.021	0.021	0.021	0.020	0.025	0.024	0.020
315.00	0.000	0.020	0.020	0.020	0.020	0.025	0.024	0.020
316.00	0.000	0.020	0.020	0.020	0.019	0.025	0.023	0.019
317.00	0.000	0.020	0.019	0.020	0.019	0.024	0.023	0.019
318.00	0.000	0.019	0.019	0.020	0.019	0.024	0.023	0.019
319.00	0.000	0.019	0.019	0.019	0.018	0.024	0.022	0.018
320.00	0.000	0.019	0.018	0.019	0.018	0.023	0.022	0.018
321.00	0.000	0.018	0.018	0.018	0.018	0.023	0.022	0.018
322.00	0.000	0.018	0.018	0.018	0.017	0.023	0.021	0.018
323.00	0.000	0.017	0.017	0.017	0.017	0.022	0.020	0.017
324.00	0.000	0.017	0.017	0.017	0.017	0.022	0.020	0.017
325.00	0.000	0.017	0.017	0.017	0.016	0.022	0.020	0.017
326.00	0.000	0.017	0.017	0.017	0.016	0.022	0.020	0.017
327.00	0.000	0.017	0.016	0.017	0.016	0.022	0.020	0.016
328.00	-0.000	0.016	0.016	0.016	0.016	0.021	0.019	0.016
329.00	0.000	0.016	0.016	0.016	0.015	0.021	0.019	0.016
330.00	0.000	0.016	0.015	0.016	0.015	0.021	0.019	0.016
331.00	0.000	0.016	0.015	0.015	0.015	0.021	0.018	0.016
332.00	-0.000	0.015	0.015	0.015	0.014	0.020	0.018	0.015
333.00	0.000	0.015	0.015	0.015	0.014	0.020	0.018	0.015
334.00	0.000	0.015	0.015	0.015	0.014	0.020	0.017	0.015
335.00	0.000	0.014	0.014	0.014	0.014	0.020	0.017	0.014
336.00	0.000	0.014	0.014	0.014	0.013	0.019	0.017	0.014
337.00	0.000	0.014	0.014	0.014	0.013	0.019	0.016	0.014
338.00	0.000	0.014	0.013	0.014	0.013	0.019	0.016	0.014
339.00	0.001	0.014	0.013	0.014	0.013	0.019	0.016	0.014
340.00	0.002	0.015	0.015	0.015	0.014	0.020	0.017	0.015
341.00	0.000	0.013	0.013	0.013	0.013	0.018	0.015	0.013
342.00	0.000	0.012	0.013	0.013	0.012	0.018	0.015	0.013
343.00	0.000	0.012	0.012	0.012	0.012	0.018	0.014	0.013
344.00	0.000	0.012	0.012	0.012	0.012	0.017	0.015	0.013
345.00	0.000	0.012	0.012	0.012	0.012	0.017	0.014	0.013
346.00	0.000	0.012	0.012	0.012	0.011	0.017	0.014	0.012
347.00	0.000	0.011	0.011	0.012	0.011	0.016	0.013	0.012
348.00	0.000	0.011	0.011	0.011	0.011	0.016	0.013	0.012
349.00	0.000	0.011	0.011	0.011	0.011	0.016	0.013	0.012
350.00	0.000	0.011	0.011	0.011	0.010	0.016	0.013	0.011
351.00	0.000	0.011	0.011	0.011	0.010	0.016	0.013	0.011
352.00	0.000	0.010	0.010	0.010	0.010	0.015	0.013	0.011
353.00	0.000	0.010	0.010	0.010	0.010	0.015	0.013	0.011
354.00	0.000	0.010	0.010	0.010	0.010	0.015	0.012	0.011
355.00	0.000	0.010	0.010	0.010	0.010	0.015	0.012	0.011
356.00	0.001	0.010	0.010	0.010	0.010	0.015	0.012	0.011
357.00	0.000	0.010	0.010	0.010	0.009	0.015	0.012	0.010
358.00	0.000	0.010	0.010	0.009	0.009	0.014	0.012	0.010
359.00	0.001	0.010	0.009	0.009	0.009	0.014	0.011	0.010
360.00	0.000	0.009	0.010	0.009	0.009	0.014	0.011	0.010
361.00	0.000	0.009	0.009	0.009	0.009	0.014	0.011	0.010
362.00	0.000	0.009	0.009	0.009	0.009	0.014	0.011	0.010
363.00	0.000	0.009	0.009	0.009	0.008	0.014	0.010	0.009
364.00	-0.000	0.008	0.008	0.008	0.008	0.013	0.010	0.009
365.00	-0.000	0.008	0.008	0.008	0.008	0.013	0.010	0.009
366.00	-0.000	0.008	0.008	0.008	0.008	0.013	0.010	0.009
367.00	0.000	0.008	0.008	0.008	0.008	0.013	0.010	0.009
368.00	0.000	0.008	0.008	0.008	0.008	0.013	0.010	0.008
369.00	0.000	0.008	0.008	0.008	0.008	0.013	0.009	0.008
370.00	0.000	0.007	0.008	0.007	0.007	0.012	0.009	0.008
371.00	0.000	0.008	0.008	0.007	0.008	0.012	0.009	0.008
372.00	0.000	0.007	0.008	0.007	0.007	0.012	0.009	0.008
373.00	0.000	0.007	0.007	0.007	0.007	0.012	0.009	0.008
374.00	0.000	0.007	0.007	0.007	0.007	0.011	0.009	0.008
375.00	0.000	0.007	0.007	0.007	0.007	0.012	0.009	0.008
376.00	0.000	0.007	0.007	0.007	0.007	0.012	0.009	0.008
377.00	0.000	0.007	0.007	0.007	0.006	0.011	0.008	0.007
378.00	0.000	0.007	0.007	0.007	0.006	0.011	0.008	0.007
379.00	0.000	0.007	0.007	0.007	0.006	0.011	0.008	0.007
380.00	0.000	0.006	0.007	0.006	0.006	0.011	0.008	0.007
381.00	0.000	0.006	0.007	0.006	0.006	0.011	0.008	0.007
382.00	0.000	0.006	0.006	0.006	0.006	0.010	0.008	0.007
383.00	0.000	0.006	0.006	0.006	0.006	0.010	0.008	0.007
384.00	0.000	0.006	0.006	0.006	0.006	0.010	0.007	0.007
385.00	0.000	0.006	0.006	0.006	0.006	0.010	0.007	0.007
386.00	0.000	0.006	0.006	0.006	0.005	0.010	0.007	0.006
387.00	0.000	0.006	0.006	0.006	0.006	0.010	0.007	0.006
388.00	0.000	0.006	0.006	0.006	0.005	0.010	0.007	0.006
389.00	0.000	0.006	0.006	0.005	0.005	0.010	0.007	0.006
390.00	-0.000	0.005	0.006	0.005	0.005	0.009	0.007	0.006
391.00	-0.000	0.005	0.005	0.005	0.005	0.009	0.006	0.006
392.00	-0.000	0.005	0.005	0.005	0.005	0.009	0.006	0.006
393.00	0.000	0.005	0.005	0.005	0.005	0.009	0.006	0.006
394.00	0.000	0.005	0.005	0.005	0.005	0.009	0.006	0.006
395.00	0.000	0.005	0.005	0.005	0.005	0.009	0.006	0.006
396.00	-0.000	0.005	0.005	0.005	0.005	0.009	0.006	0.005
397.00	-0.000	0.005	0.005	0.005	0.005	0.008	0.006	0.005
398.00	-0.000	0.005	0.005	0.004	0.004	0.008	0.006	0.005
399.00	-0.000	0.005	0.005	0.004	0.004	0.008	0.006	0.005
400.00	-0.000	0.005	0.005	0.004	0.004	0.008	0.005	0.005
401.00	-0.000	0.004	0.005	0.004	0.004	0.008	0.005	0.005
402.00	-0.000	0.004	0.005	0.004	0.004	0.008	0.005	0.005
403.00	-0.000	0.004	0.005	0.004	0.004	0.008	0.005	0.005
404.00	-0.000	0.004	0.005	0.004	0.004	0.008	0.005	0.005
405.00	0.000	0.004	0.005	0.004	0.004	0.008	0.005	0.005
406.00	-0.000	0.004	0.004	0.004	0.004	0.008	0.005	0.005
407.00	-0.000	0.004	0.004	0.004	0.004	0.008	0.005	0.005
408.00	0.000	0.004	0.004	0.004	0.004	0.008	0.005	0.005
409.00	0.000	0.004	0.004	0.004	0.004	0.007	0.005	0.005
410.00	0.000	0.004	0.004	0.004	0.004	0.007	0.005	0.004
411.00	0.000	0.004	0.004	0.004	0.004	0.007	0.005	0.004
412.00	0.000	0.004	0.004	0.003	0.004	0.007	0.005	0.004
413.00	0.000	0.004	0.004	0.003	0.003	0.007	0.005	0.004
414.00	0.000	0.004	0.004	0.004	0.003	0.007	0.005	0.004
415.00	0.000	0.004	0.004	0.003	0.003	0.007	0.004	0.004
416.00	0.000	0.004	0.004	0.003	0.003	0.007	0.004	0.004
417.00	0.000	0.003	0.004	0.003	0.003	0.007	0.004	0.004
418.00	0.000	0.003	0.004	0.003	0.003	0.007	0.004	0.004
419.00	0.000	0.003	0.004	0.003	0.003	0.007	0.004	0.004
420.00	0.000	0.003	0.003	0.003	0.003	0.007	0.004	0.004
421.00	0.000	0.003	0.003	0.003	0.003	0.006	0.004	0.004
422.00	0.000	0.003	0.003	0.003	0.003	0.006	0.004	0.004
423.00	0.000	0.003	0.003	0.003	0.003	0.006	0.004	0.004
424.00	0.000	0.003	0.003	0.003	0.003	0.006	0.004	0.004
425.00	0.000	0.003	0.003	0.003	0.003	0.006	0.004	0.004
426.00	0.000	0.003	0.003	0.003	0.003	0.006	0.004	0.004
427.00	0.000	0.003	0.003	0.003	0.003	0.006	0.004	0.003
428.00	0.000	0.003	0.003	0.003	0.003	0.006	0.004	0.003
429.00	-0.000	0.003	0.003	0.003	0.003	0.006	0.004	0.003
430.00	-0.000	0.003	0.003	0.003	0.003	0.006	0.003	0.003
431.00	-0.000	0.003	0.003	0.002	0.002	0.006	0.003	0.003
432.00	0.000	0.003	0.003	0.002	0.003	0.006	0.003	0.003
433.00	-0.000	0.003	0.003	0.002	0.002	0.006	0.003	0.003
434.00	-0.000	0.002	0.003	0.002	0.002	0.005	0.003	0.003
435.00	-0.000	0.002	0.003	0.002	0.002	0.005	0.003	0.003
436.00	-0.000	0.002	0.003	0.002	0.002	0.005	0.003	0.003
437.00	-0.000	0.002	0.003	0.002	0.002	0.005	0.003	0.003
438.00	-0.000	0.002	0.003	0.002	0.002	0.005	0.003	0.003
439.00	-0.000	0.002	0.003	0.002	0.002	0.005	0.003	0.003
440.00	-0.000	0.002	0.003	0.002	0.002	0.005	0.003	0.003
441.00	-0.000	0.002	0.003	0.002	0.002	0.005	0.003	0.003
442.00	-0.000	0.002	0.002	0.002	0.002	0.005	0.003	0.003
443.00	-0.000	0.002	0.002	0.002	0.002	0.005	0.003	0.003
444.00	-0.000	0.002	0.002	0.002	0.002	0.005	0.003	0.003
445.00	-0.000	0.002	0.002	0.002	0.002	0.005	0.003	0.003
446.00	-0.000	0.002	0.002	0.002	0.002	0.005	0.002	0.003
447.00	-0.000	0.002	0.002	0.002	0.002	0.005	0.003	0.003
448.00	-0.000	0.002	0.002	0.002	0.002	0.005	0.002	0.002
449.00	-0.000	0.002	0.002	0.002	0.002	0.005	0.002	0.002
450.00	-0.000	0.002	0.002	0.002	0.002	0.005	0.002	0.002
451.00	-0.000	0.002	0.002	0.002	0.002	0.005	0.002	0.002
452.00	-0.000	0.002	0.002	0.002	0.002	0.005	0.002	0.002
453.00	-0.000	0.002	0.002	0.002	0.002	0.004	0.002	0.002
454.00	0.000	0.002	0.002	0.002	0.002	0.004	0.002	0.002
455.00	-0.000	0.002	0.002	0.002	0.002	0.004	0.002	0.002
456.00	0.000	0.002	0.002	0.002	0.002	0.004	0.002	0.002
457.00	-0.000	0.002	0.002	0.002	0.002	0.004	0.002	0.002
458.00	-0.000	0.002	0.002	0.002	0.002	0.004	0.002	0.002
459.00	0.000	0.002	0.002	0.002	0.002	0.004	0.002	0.002
460.00	-0.000	0.002	0.002	0.002	0.001	0.004	0.002	0.002
461.00	-0.000	0.002	0.002	0.001	0.001	0.004	0.002	0.002
462.00	0.000	0.002	0.002	0.001	0.001	0.004	0.002	0.002
463.00	0.000	0.002	0.002	0.001	0.001	0.004	0.002	0.002
464.00	0.000	0.002	0.002	0.001	0.001	0.004	0.002	0.002
465.00	-0.000	0.002	0.002	0.001	0.001	0.004	0.002	0.002
466.00	-0.000	0.002	0.002	0.001	0.001	0.004	0.002	0.002
467.00	-0.000	0.002	0.002	0.001	0.001	0.004	0.002	0.002
468.00	0.000	0.002	0.002	0.001	0.001	0.004	0.002	0.002
469.00	0.000	0.002	0.002	0.001	0.001	0.004	0.002	0.002
470.00	-0.000	0.001	0.002	0.001	0.001	0.004	0.002	0.002
471.00	-0.000	0.001	0.002	0.001	0.001	0.004	0.002	0.002
472.00	-0.000	0.001	0.002	0.001	0.001	0.004	0.002	0.002
473.00	-0.000	0.001	0.002	0.001	0.001	0.004	0.002	0.002
474.00	-0.000	0.001	0.002	0.001	0.001	0.004	0.002	0.002
475.00	-0.000	0.001	0.002	0.001	0.001	0.004	0.002	0.002
476.00	-0.000	0.001	0.002	0.001	0.001	0.004	0.002	0.002
477.00	-0.000	0.001	0.002	0.001	0.001	0.003	0.002	0.001
478.00	-0.000	0.001	0.002	0.001	0.001	0.003	0.002	0.001
479.00	-0.000	0.001	0.002	0.001	0.001	0.003	0.002	0.001
480.00	0.000	0.001	0.002	0.001	0.001	0.003	0.001	0.001
481.00	-0.000	0.001	0.001	0.001	0.001	0.003	0.001	0.001
482.00	-0.000	0.001	0.001	0.001	0.001	0.003	0.001	0.001
483.00	-0.000	0.001	0.001	0.001	0.001	0.003	0.001	0.001
484.00	-0.000	0.001	0.001	0.001	0.001	0.003	0.001	0.001
485.00	-0.000	0.001	0.001	0.001	0.001	0.003	0.001	0.001
486.00	-0.000	0.001	0.001	0.001	0.001	0.003	0.001	0.001
487.00	-0.000	0.001	0.001	0.001	0.001	0.003	0.001	0.001
488.00	-0.000	0.001	0.001	0.001	0.001	0.003	0.001	0.001
489.00	-0.000	0.001	0.001	0.001	0.001	0.003	0.001	0.001
490.00	-0.000	0.001	0.001	0.001	0.001	0.003	0.001	0.001
491.00	-0.000	0.001	0.001	0.001	0.001	0.003	0.001	0.001
492.00	-0.000	0.001	0.001	0.001	0.001	0.003	0.001	0.001
493.00	-0.000	0.001	0.001	0.001	0.001	0.003	0.001	0.001
494.00	-0.000	0.001	0.001	0.001	0.001	0.003	0.001	0.001
495.00	-0.000	0.001	0.001	0.001	0.001	0.003	0.001	0.001
496.00	-0.000	0.001	0.001	0.001	0.001	0.003	0.001	0.001
497.00	-0.000	0.001	0.001	0.001	0.001	0.003	0.001	0.001
498.00	-0.000	0.001	0.001	0.001	0.001	0.003	0.001	0.001
499.00	-0.000	0.001	0.001	0.001	0.001	0.003	0.001	0.001
500.00	-0.000	0.001	0.001	0.001	0.001	0.003	0.001	0.001
501.00	0.000	0.001	0.001	0.001	0.001	0.003	0.001	0.001
502.00	-0.000	0.001	0.001	0.001	0.001	0.003	0.001	0.001
503.00	-0.000	0.001	0.001	0.001	0.001	0.003	0.001	0.001
504.00	-0.000	0.001	0.001	0.001	0.001	0.003	0.001	0.001
505.00	0.000	0.001	0.001	0.001	0.001	0.003	0.001	0.001
506.00	0.000	0.001	0.001	0.001	0.001	0.003	0.001	0.001
507.00	0.000	0.001	0.001	0.001	0.001	0.003	0.001	0.001
508.00	-0.000	0.001	0.001	0.001	0.001	0.003	0.001	0.001
509.00	-0.000	0.001	0.001	0.001	0.001	0.003	0.001	0.001
510.00	0.000	0.001	0.001	0.001	0.001	0.003	0.001	0.001
511.00	0.000	0.001	0.001	0.001	0.001	0.003	0.001	0.001
512.00	0.000	0.001	0.001	0.001	0.001	0.003	0.001	0.001
513.00	0.000	0.001	0.001	0.001	0.001	0.003	0.001	0.001
514.00	-0.000	0.001	0.001	0.001	0.001	0.003	0.001	0.001
515.00	-0.000	0.001	0.001	0.001	0.001	0.003	0.001	0.001
516.00	0.000	0.001	0.001	0.001	0.001	0.003	0.001	0.001
517.00	0.000	0.001	0.001	0.001	0.001	0.003	0.001	0.001
518.00	0.000	0.001	0.001	0.001	0.001	0.003	0.001	0.001
519.00	-0.000	0.001	0.001	0.001	0.001	0.003	0.001	0.001
520.00	0.000	0.001	0.001	0.001	0.001	0.003	0.001	0.001
521.00	0.000	0.001	0.001	0.000	0.001	0.003	0.001	0.001
522.00	-0.000	0.001	0.001	0.001	0.001	0.003	0.001	0.001
523.00	-0.000	0.001	0.001	0.000	0.001	0.002	0.001	0.001
524.00	-0.000	0.001	0.001	0.000	0.001	0.002	0.001	0.001
525.00	-0.000	0.001	0.001	0.000	0.001	0.002	0.001	0.001
526.00	-0.000	0.001	0.001	0.000	0.000	0.002	0.001	0.001
527.00	-0.000	0.001	0.001	0.000	0.000	0.002	0.001	0.001
528.00	-0.000	0.001	0.001	0.000	0.001	0.002	0.001	0.001
529.00	-0.000	0.000	0.001	0.000	0.000	0.002	0.001	0.001
530.00	-0.000	0.001	0.001	0.000	0.000	0.002	0.001	0.001
531.00	-0.000	0.001	0.001	0.000	0.000	0.002	0.001	0.001
532.00	-0.000	0.001	0.001	0.000	0.000	0.002	0.001	0.001
533.00	-0.000	0.001	0.001	0.000	0.000	0.002	0.001	0.001
534.00	-0.000	0.001	0.001	0.000	0.000	0.002	0.001	0.001
535.00	0.000	0.001	0.001	0.001	0.001	0.002	0.001	0.001
536.00	0.001	0.002	0.002	0.002	0.002	0.003	0.002	0.002
537.00	0.000	0.001	0.001	0.000	0.001	0.002	0.001	0.001
538.00	-0.000	0.000	0.001	0.000	0.000	0.002	0.001	0.001
539.00	-0.000	0.000	0.001	0.000	0.000	0.002	0.000	0.001
540.00	-0.000	0.000	0.001	0.000	0.000	0.002	0.001	0.001
541.00	-0.000	0.000	0.001	0.000	0.000	0.002	0.000	0.001
542.00	-0.000	0.000	0.001	0.000	0.000	0.002	0.000	0.001
543.00	-0.000	0.000	0.001	0.000	0.000	0.002	0.000	0.001
544.00	-0.000	0.000	0.001	0.000	0.000	0.002	0.000	0.001
545.00	-0.000	0.000	0.001	0.000	0.000	0.002	0.001	0.001
546.00	-0.000	0.000	0.001	0.000	0.000	0.002	0.000	0.001
547.00	-0.000	0.000	0.001	0.000	0.000	0.002	0.000	0.001
548.00	-0.000	0.000	0.001	0.000	0.000	0.002	0.000	0.001
549.00	-0.000	0.000	0.001	0.000	0.000	0.002	0.000	0.001
550.00	-0.000	0.000	0.001	0.000	0.000	0.002	0.000	0.001
551.00	-0.000	0.000	0.001	0.000	0.000	0.002	0.000	0.001
552.00	-0.000	0.000	0.001	0.000	0.000	0.002	0.000	0.001
553.00	-0.000	0.000	0.001	0.000	0.000	0.002	0.000	0.001
554.00	-0.000	0.000	0.001	0.000	0.000	0.002	0.000	0.001
555.00	-0.000	0.000	0.001	0.000	0.000	0.002	0.001	0.001
556.00	-0.000	0.000	0.001	0.000	0.000	0.002	0.000	0.000
557.00	-0.000	0.000	0.001	0.000	0.000	0.002	0.001	0.000
558.00	-0.000	0.000	0.001	0.000	0.000	0.002	0.000	0.001
559.00	-0.000	0.000	0.001	0.000	0.000	0.002	0.000	0.001
560.00	-0.000	0.000	0.001	0.000	0.000	0.002	0.000	0.001
561.00	-0.000	0.000	0.001	0.000	0.000	0.002	0.000	0.001
562.00	-0.000	0.000	0.001	0.000	0.000	0.002	0.000	0.001
563.00	-0.000	0.000	0.001	0.000	0.000	0.002	0.000	0.000
564.00	-0.000	0.000	0.001	0.000	0.000	0.002	0.000	0.000
565.00	-0.000	0.000	0.001	0.000	0.000	0.002	0.000	0.000
566.00	-0.000	0.000	0.001	0.000	0.000	0.002	0.000	0.000
567.00	-0.000	0.000	0.001	0.000	0.000	0.002	0.000	0.001
568.00	0.000	0.000	0.001	0.000	0.000	0.002	0.000	0.001
569.00	-0.000	0.000	0.001	0.000	0.000	0.002	0.000	0.000
570.00	-0.000	0.000	0.001	0.000	0.000	0.002	0.000	0.000
571.00	0.000	0.000	0.001	0.000	0.000	0.002	0.000	0.000
572.00	-0.000	0.000	0.001	0.000	0.000	0.002	0.000	0.000
573.00	-0.000	0.000	0.001	0.000	0.000	0.002	0.000	0.000
574.00	-0.000	0.000	0.001	0.000	0.000	0.002	0.000	0.000
575.00	-0.000	0.000	0.001	0.000	0.000	0.002	0.000	0.000
576.00	0.000	0.000	0.001	0.000	0.000	0.002	0.000	0.000
577.00	0.000	0.000	0.001	0.000	0.000	0.002	0.000	0.000
578.00	0.000	0.000	0.001	0.000	0.000	0.002	0.000	0.000
579.00	0.000	0.000	0.001	0.000	0.000	0.002	0.000	0.000
580.00	0.000	0.000	0.001	0.000	0.000	0.002	0.000	0.000
581.00	0.000	0.000	0.001	0.000	0.000	0.002	0.000	0.000
582.00	0.000	0.000	0.001	0.000	0.000	0.002	0.001	0.000
583.00	0.000	0.000	0.001	0.000	0.000	0.002	0.000	0.000
584.00	0.000	0.000	0.001	0.000	0.000	0.002	0.000	0.001
585.00	0.000	0.000	0.001	0.000	0.000	0.002	0.000	0.001
586.00	-0.000	0.000	0.001	0.000	0.000	0.002	0.000	0.000
587.00	0.000	0.000	0.001	0.000	0.000	0.002	0.000	0.000
588.00	0.000	0.000	0.001	0.000	0.000	0.002	0.000	0.000
589.00	0.000	0.000	0.001	0.000	0.000	0.002	0.000	0.000
590.00	-0.000	0.000	0.001	0.000	0.000	0.002	0.000	0.000
591.00	0.000	0.000	0.001	0.000	0.000	0.002	0.000	0.000
592.00	0.000	0.000	0.001	0.000	0.000	0.002	0.000	0.000
593.00	-0.000	0.000	0.001	0.000	0.000	0.002	0.000	0.000
594.00	0.000	0.000	0.001	0.000	0.000	0.002	0.000	0.000
595.00	-0.000	0.000	0.001	0.000	0.000	0.002	0.000	0.000
596.00	-0.000	0.000	0.001	0.000	0.000	0.002	0.000	0.000
597.00	-0.000	0.000	0.001	0.000	0.000	0.001	0.000	0.000
598.00	-0.000	0.000	0.001	0.000	0.000	0.002	0.000	0.000
599.00	0.000	0.000	0.001	0.000	0.000	0.002	0.000	0.000
600.00	-0.000	0.000	0.001	0.000	0.000	0.001	0.000	0.000
601.00	-0.000	0.000	0.001	0.000	0.000	0.001	0.000	0.000
602.00	-0.000	0.000	0.001	0.000	0.000	0.001	0.000	0.000
603.00	-0.000	0.000	0.001	0.000	0.000	0.002	0.000	0.000
604.00	-0.000	0.000	0.000	0.000	0.000	0.001	0.000	0.000
605.00	-0.000	0.000	0.000	0.000	0.000	0.001	0.000	0.000
606.00	-0.000	0.000	0.000	0.000	0.000	0.001	0.000	0.000
607.00	-0.000	0.000	0.000	-0.000	0.000	0.001	0.000	0.000
608.00	-0.000	0.000	0.000	-0.000	-0.000	0.001	0.000	0.000
609.00	-0.000	0.000	0.000	-0.000	0.000	0.001	0.000	0.000
610.00	-0.000	0.000	0.001	-0.000	0.000	0.001	0.000	0.000
611.00	-0.000	0.000	0.001	-0.000	0.000	0.001	0.000	0.000
612.00	0.000	0.000	0.001	-0.000	0.000	0.001	0.000	0.000
613.00	-0.000	0.000	0.001	-0.000	0.000	0.001	0.000	0.000
614.00	-0.000	0.000	0.001	-0.000	0.000	0.001	0.000	0.000
615.00	-0.000	0.000	0.001	-0.000	0.000	0.001	0.000	0.000
616.00	-0.000	0.000	0.001	-0.000	0.000	0.001	0.000	0.000
617.00	-0.000	0.000	0.000	-0.000	0.000	0.001	0.000	0.000
618.00	-0.000	0.000	0.001	-0.000	0.000	0.001	0.000	0.000
619.00	-0.000	0.000	0.000	-0.000	0.000	0.001	0.000	0.000
620.00	-0.000	0.000	0.000	-0.000	0.000	0.001	-0.000	0.000
621.00	-0.000	0.000	0.000	-0.000	0.000	0.001	0.000	0.000
622.00	-0.000	0.000	0.001	-0.000	0.000	0.001	0.000	0.000
623.00	-0.000	0.000	0.000	-0.000	0.000	0.001	0.000	0.000
624.00	-0.000	0.000	0.001	-0.000	0.000	0.001	0.000	0.000
625.00	-0.000	0.000	0.000	-0.000	0.000	0.001	-0.000	0.000
626.00	-0.000	0.000	0.000	-0.000	0.000	0.001	-0.000	0.000
627.00	-0.000	0.000	0.000	-0.000	0.000	0.001	-0.000	0.000
628.00	-0.000	0.000	0.000	-0.000	0.000	0.001	-0.000	0.000
629.00	-0.000	0.000	0.000	-0.000	0.000	0.001	0.000	0.000
630.00	-0.000	0.000	0.001	-0.000	0.000	0.001	0.000	0.000
631.00	-0.000	0.000	0.000	-0.000	0.000	0.001	-0.000	0.000
632.00	-0.000	0.000	0.000	-0.000	0.000	0.001	0.000	0.000
633.00	-0.000	0.000	0.000	-0.000	0.000	0.001	0.000	0.000
634.00	-0.000	0.000	0.001	-0.000	0.000	0.001	0.000	0.000
635.00	-0.000	0.000	0.001	-0.000	0.000	0.001	0.000	0.000
636.00	-0.000	0.000	0.000	-0.000	0.000	0.001	0.000	0.000
637.00	-0.000	0.000	0.000	-0.000	0.000	0.001	0.000	0.000
638.00	-0.000	0.000	0.000	-0.000	-0.000	0.001	-0.000	0.000
639.00	-0.000	0.000	0.000	-0.000	-0.000	0.001	0.000	0.000
640.00	-0.000	0.000	0.000	-0.000	-0.000	0.001	0.000	0.000
641.00	-0.000	0.000	0.000	-0.000	-0.000	0.001	-0.000	0.000
642.00	-0.000	0.000	0.000	-0.000	-0.000	0.001	0.000	0.000
643.00	-0.000	0.000	0.000	-0.000	-0.000	0.001	0.000	0.000
644.00	-0.000	0.000	0.000	-0.000	-0.000	0.001	0.000	0.000
645.00	-0.000	0.000	0.000	-0.000	-0.000	0.001	-0.000	0.000
646.00	-0.000	0.000	0.000	-0.000	-0.000	0.001	0.000	0.000
647.00	-0.000	0.000	0.000	-0.000	0.000	0.001	0.000	0.000
648.00	-0.000	0.000	0.001	-0.000	0.000	0.001	0.000	0.000
649.00	-0.000	0.000	0.001	-0.000	0.000	0.001	0.000	0.000
650.00	-0.000	0.000	0.001	-0.000	0.000	0.001	0.000	0.000
651.00	-0.000	0.000	0.001	0.000	0.000	0.001	0.000	0.000
652.00	-0.000	0.000	0.000	-0.000	0.000	0.001	0.000	0.000
653.00	0.000	0.000	0.001	0.000	0.000	0.001	0.000	0.000
654.00	0.000	0.000	0.001	0.000	0.000	0.001	0.000	0.000
655.00	0.000	0.000	0.001	0.000	0.000	0.001	0.000	0.000
656.00	0.000	0.000	0.001	0.000	0.000	0.001	0.000	0.000
657.00	0.000	0.000	0.000	0.000	0.000	0.001	0.000	0.000
658.00	0.000	0.000	0.000	0.000	0.000	0.001	0.000	0.000
659.00	0.000	0.000	0.000	0.000	0.000	0.001	0.000	0.000
660.00	0.000	0.000	0.000	0.000	0.000	0.001	0.000	0.000
661.00	0.000	0.000	0.001	0.000	0.000	0.001	0.000	0.000
662.00	0.000	0.000	0.000	0.000	0.000	0.001	0.000	0.000
663.00	-0.000	0.000	0.000	0.000	0.000	0.001	0.000	0.000
664.00	0.000	0.000	0.001	0.000	0.000	0.001	0.000	0.000
665.00	0.000	0.000	0.001	0.000	0.000	0.001	0.000	0.000
666.00	0.000	0.000	0.001	0.000	0.000	0.001	0.000	0.000
667.00	0.000	0.000	0.000	0.000	0.000	0.001	0.000	0.000
668.00	0.000	0.000	0.000	0.000	0.000	0.001	0.000	0.000
669.00	0.000	0.000	0.001	0.000	0.000	0.001	0.000	0.000
670.00	0.000	0.000	0.001	0.000	0.000	0.001	0.000	0.000
671.00	0.000	0.000	0.001	0.000	0.000	0.001	0.000	0.000
672.00	0.000	0.000	0.001	0.000	0.000	0.001	0.000	0.000
673.00	0.000	0.000	0.001	0.000	0.000	0.001	0.000	0.000
674.00	0.000	0.000	0.001	0.000	0.000	0.001	0.000	0.000
675.00	0.000	0.000	0.001	0.000	0.000	0.001	0.000	0.000
676.00	0.000	0.000	0.001	0.000	0.000	0.001	0.000	0.000
677.00	0.000	0.000	0.001	0.000	0.000	0.001	0.000	0.000
678.00	0.000	0.000	0.001	0.000	0.000	0.001	0.000	0.000
679.00	0.000	0.000	0.000	0.000	0.000	0.001	0.000	0.000
680.00	0.000	0.000	0.000	0.000	0.000	0.001	0.000	0.000
681.00	0.000	0.000	0.000	0.000	0.000	0.001	0.000	0.000
682.00	0.000	0.000	0.001	0.000	0.000	0.001	0.000	0.000
683.00	0.000	0.000	0.000	0.000	0.000	0.001	0.000	0.000
684.00	0.000	0.000	0.001	0.000	0.000	0.001	0.000	0.000
685.00	0.000	0.000	0.001	0.000	0.000	0.001	0.000	0.000
686.00	0.000	0.000	0.000	0.000	0.000	0.001	0.000	0.000
687.00	-0.000	0.000	0.000	0.000	0.000	0.001	0.000	0.000
688.00	0.000	0.000	0.000	0.000	0.000	0.001	0.000	0.000
689.00	0.000	0.000	0.001	0.000	0.000	0.001	0.000	0.000
690.00	0.000	0.000	0.001	0.000	0.000	0.001	0.000	0.000
691.00	-0.000	0.000	0.000	0.000	0.000	0.001	0.000	0.000
692.00	-0.000	0.000	0.000	-0.000	-0.000	0.001	0.000	0.000
693.00	-0.000	0.000	0.001	-0.000	0.000	0.001	0.000	0.000
694.00	0.000	0.000	0.001	0.000	0.000	0.001	0.000	0.000
695.00	0.000	0.000	0.001	-0.000	0.000	0.001	0.000	0.000
696.00	0.000	0.000	0.000	-0.000	0.000	0.001	0.000	0.000
697.00	-0.000	0.000	0.000	-0.000	-0.000	0.001	0.000	0.000
698.00	-0.000	0.000	0.000	-0.000	-0.000	0.001	0.000	0.000
699.00	-0.000	0.000	0.000	-0.000	0.000	0.001	-0.000	0.000
700.00	0.000	0.000	0.000	0.000	0.000	0.001	0.000	0.000
701.00	0.000	0.000	0.001	0.000	0.000	0.001	0.000	0.000
702.00	0.000	0.000	0.001	-0.000	0.000	0.001	0.000	0.000
703.00	0.000	0.000	0.000	-0.000	0.000	0.001	-0.000	0.000
704.00	0.000	0.000	0.000	-0.000	0.000	0.001	0.000	0.000
705.00	0.000	0.000	0.001	-0.000	0.000	0.001	0.000	0.000
706.00	0.000	0.000	0.001	0.000	0.000	0.001	0.000	0.000
707.00	0.000	0.000	0.001	0.000	0.000	0.001	0.000	0.000
708.00	-0.000	0.000	0.000	-0.000	0.000	0.001	0.000	0.000
709.00	-0.000	0.000	0.000	-0.000	0.000	0.001	0.000	0.000
710.00	-0.000	0.000	0.001	-0.000	0.000	0.001	-0.000	0.000
711.00	0.000	0.000	0.000	-0.000	0.000	0.001	-0.000	0.000
712.00	-0.000	0.000	0.001	-0.000	0.000	0.001	0.000	0.000
713.00	-0.000	0.000	0.000	-0.000	0.000	0.001	0.000	0.000
714.00	-0.000	0.000	0.000	-0.000	0.000	0.001	0.000	0.000
715.00	-0.000	0.000	0.000	-0.000	0.000	0.001	-0.000	0.000
716.00	-0.000	0.000	0.000	-0.000	0.000	0.001	-0.000	0.000
717.00	-0.000	0.000	0.000	-0.000	0.000	0.001	-0.000	0.000
718.00	-0.000	0.000	0.000	-0.000	0.000	0.001	-0.000	0.000
719.00	-0.000	0.000	0.000	-0.000	0.000	0.001	-0.000	0.000
720.00	-0.000	-0.000	0.000	-0.000	0.000	0.001	-0.000	0.000
721.00	-0.000	-0.000	0.000	-0.000	0.000	0.001	-0.000	0.000
722.00	-0.000	0.000	0.000	-0.000	0.000	0.001	-0.000	0.000
723.00	-0.000	-0.000	0.000	-0.000	0.000	0.001	-0.000	0.000
724.00	-0.000	0.000	0.000	-0.000	0.000	0.001	-0.000	0.000
725.00	-0.000	0.000	0.000	-0.000	0.000	0.001	-0.000	0.000
726.00	-0.000	-0.000	0.000	-0.000	0.000	0.001	-0.000	0.000
727.00	-0.000	0.000	0.000	-0.000	0.000	0.001	-0.000	0.000
728.00	-0.000	0.000	0.000	-0.000	0.000	0.001	-0.000	0.000
729.00	-0.000	-0.000	0.000	-0.000	0.000	0.001	-0.000	0.000
730.00	-0.000	-0.000	0.000	-0.000	-0.000	0.001	-0.000	0.000
731.00	-0.000	-0.000	0.000	-0.000	-0.000	0.001	-0.000	0.000
732.00	-0.000	-0.000	0.000	-0.000	-0.000	0.001	-0.000	0.000
733.00	-0.000	-0.000	0.000	-0.000	0.000	0.001	-0.000	0.000
734.00	-0.000	-0.000	0.000	-0.000	0.000	0.001	-0.000	0.000
735.00	-0.000	-0.000	0.000	-0.000	0.000	0.001	-0.000	0.000
736.00	-0.000	-0.000	0.000	-0.000	0.000	0.001	-0.000	0.000
737.00	-0.000	-0.000	0.000	-0.000	0.000	0.001	-0.000	0.000
738.00	-0.000	-0.000	0.000	-0.000	0.000	0.001	-0.000	0.000
739.00	-0.000	-0.000	0.000	-0.000	0.000	0.001	-0.000	0.000
740.00	-0.000	-0.000	0.000	-0.000	0.000	0.001	-0.000	0.000
741.00	0.000	-0.000	0.000	-0.000	-0.000	0.001	0.000	0.000
742.00	0.000	-0.000	0.000	-0.000	-0.000	0.001	-0.000	0.000
743.00	-0.000	-0.000	0.000	-0.000	0.000	0.001	-0.000	0.000
744.00	-0.000	-0.000	0.000	-0.000	-0.000	0.001	-0.000	0.000
745.00	-0.000	0.000	0.000	-0.000	0.000	0.001	-0.000	0.000
746.00	0.000	-0.000	0.000	-0.000	0.000	0.001	0.000	0.000
747.00	0.000	0.000	0.001	-0.000	0.000	0.001	0.000	0.000
748.00	-0.000	-0.000	0.000	-0.000	0.000	0.001	0.000	0.000
749.00	-0.000	-0.000	0.000	-0.000	0.000	0.001	-0.000	0.000
750.00	-0.000	-0.000	0.000	-0.000	0.000	0.001	-0.000	0.000
751.00	-0.000	-0.000	0.000	-0.000	-0.000	0.001	-0.000	0.000
752.00	-0.000	-0.000	0.000	-0.000	-0.000	0.001	-0.000	0.000
753.00	-0.000	-0.000	0.000	-0.000	-0.000	0.001	-0.000	0.000
754.00	0.000	0.000	0.000	-0.000	-0.000	0.001	-0.000	0.000
755.00	0.000	0.000	0.000	-0.000	0.000	0.001	0.000	0.000
756.00	0.000	0.000	0.000	-0.000	-0.000	0.001	0.000	0.000
757.00	0.000	0.000	0.000	-0.000	-0.000	0.001	0.000	0.000
758.00	0.000	0.000	0.000	-0.000	0.000	0.001	0.000	0.000
759.00	0.000	0.000	0.001	0.000	0.000	0.001	0.000	0.000
760.00	0.001	0.001	0.002	0.001	0.001	0.002	0.001	0.001
761.00	0.000	0.000	0.001	0.000	0.000	0.001	0.000	0.000
762.00	-0.000	-0.000	0.000	-0.000	-0.000	0.001	-0.000	0.000
763.00	-0.000	-0.000	0.000	-0.000	-0.000	0.001	-0.000	-0.000
764.00	-0.000	0.000	0.000	-0.000	0.000	0.001	0.000	0.000
765.00	0.000	0.000	0.000	-0.000	0.000	0.001	0.000	0.000
766.00	-0.000	-0.000	0.000	-0.000	0.000	0.001	0.000	0.000
767.00	-0.000	0.000	0.000	-0.000	0.000	0.001	0.000	0.000
768.00	-0.000	-0.000	0.000	-0.000	-0.000	0.001	0.000	-0.000
769.00	-0.000	-0.000	0.000	-0.000	-0.000	0.001	-0.000	-0.000
770.00	-0.000	-0.000	0.000	-0.000	-0.000	0.001	0.000	-0.000
771.00	-0.000	-0.000	0.000	-0.000	-0.000	0.001	0.000	0.000
772.00	0.000	0.000	0.000	-0.000	0.000	0.001	0.000	0.000
773.00	-0.000	0.000	0.000	-0.000	-0.000	0.001	0.000	0.000
774.00	-0.000	0.000	0.000	-0.000	-0.000	0.001	0.000	0.000
775.00	0.000	0.000	0.000	-0.000	-0.000	0.001	0.000	-0.000
776.00	0.000	0.000	0.000	-0.000	0.000	0.001	0.000	-0.000
777.00	-0.000	0.000	0.000	0.000	0.000	0.001	0.000	0.000
778.00	-0.000	0.000	0.000	-0.000	-0.000	0.001	0.000	0.000
779.00	-0.000	0.000	0.000	-0.000	-0.000	0.001	0.000	0.000
780.00	-0.000	0.000	0.000	-0.000	-0.000	0.001	0.000	0.000
781.00	0.000	0.000	0.000	-0.000	0.000	0.001	0.000	0.000
782.00	0.000	0.000	0.000	-0.000	0.000	0.001	0.000	0.000
783.00	0.000	0.000	0.000	0.000	0.000	0.001	0.000	0.000
784.00	0.000	0.000	0.000	0.000	0.000	0.001	0.000	-0.000
785.00	0.000	0.000	0.000	0.000	0.000	0.001	0.000	0.000
786.00	0.000	0.000	0.000	0.000	0.000	0.001	0.000	0.000
787.00	0.000	0.000	0.000	0.000	0.000	0.001	0.000	0.000
788.00	0.000	0.000	0.000	0.000	0.000	0.001	0.000	0.000
789.00	0.000	0.000	0.000	0.000	0.000	0.001	0.000	0.000
790.00	0.000	0.000	0.000	0.000	0.000	0.001	0.000	0.000
791.00	0.000	0.000	0.000	0.000	0.000	0.001	0.000	0.000
792.00	0.000	0.000	0.000	0.000	0.000	0.001	0.000	0.000
793.00	0.000	0.000	0.000	0.000	0.000	0.001	0.000	0.000
794.00	0.000	0.000	0.000	0.000	0.000	0.001	0.000	0.000
795.00	0.000	0.000	0.000	0.000	0.000	0.001	0.000	0.000
796.00	0.000	0.000	0.000	0.000	0.000	0.001	0.000	0.000
797.00	0.000	0.000	0.000	0.000	0.000	0.001	0.000	0.000
798.00	0.000	0.000	0.000	0.000	0.000	0.001	0.000	0.000
799.00	0.000	0.000	0.000	0.000	0.000	0.001	0.000	0.000
800.00	0.000	0.000	0.000	0.000	0.000	0.001	0.000	0.000
801.00	0.000	0.000	0.000	0.000	0.000	0.001	0.000	0.000
802.00	0.000	0.000	0.000	0.000	0.000	0.001	0.000	0.000
803.00	0.000	0.000	0.001	0.000	0.000	0.001	0.000	0.000
804.00	0.000	0.000	0.001	0.000	0.000	0.001	0.000	0.000
805.00	0.000	0.000	0.001	0.000	0.000	0.001	0.000	0.000
806.00	0.000	0.000	0.001	0.000	0.000	0.001	0.000	0.000
807.00	0.000	0.000	0.001	0.000	0.000	0.001	0.000	0.000
808.00	0.000	0.000	0.001	0.000	0.000	0.001	0.000	0.000
809.00	0.000	0.000	0.001	0.000	0.000	0.001	0.000	0.000
810.00	0.000	0.000	0.001	0.000	0.000	0.001	0.000	0.000
811.00	0.000	0.000	0.001	0.000	0.000	0.001	0.000	0.000
812.00	0.000	0.000	0.001	0.000	0.000	0.001	0.000	0.000
813.00	0.000	0.000	0.001	0.000	0.000	0.001	0.000	0.000
814.00	0.000	0.000	0.000	0.000	0.000	0.001	0.000	0.000
815.00	0.000	0.000	0.001	0.000	0.000	0.001	0.000	0.000
816.00	0.000	0.000	0.001	0.000	0.000	0.001	0.000	0.000
817.00	0.000	0.000	0.001	0.000	0.000	0.001	0.000	0.000
818.00	0.000	0.000	0.001	0.000	0.000	0.001	0.000	0.000
819.00	0.000	0.000	0.001	0.000	0.000	0.001	0.000	0.000
820.00	0.000	0.000	0.001	0.000	0.000	0.001	0.000	0.000
821.00	0.000	0.000	0.001	0.000	0.000	0.001	0.000	0.000
822.00	0.000	0.000	0.001	0.000	0.000	0.001	0.000	0.000
823.00	0.000	0.000	0.000	0.000	0.000	0.001	0.000	0.000
824.00	0.000	0.000	0.000	0.000	0.000	0.001	0.000	0.000
825.00	0.000	0.000	0.000	0.000	0.000	0.001	0.000	0.000
826.00	0.000	0.000	0.000	0.000	0.000	0.001	0.000	0.000
827.00	0.000	0.000	0.001	0.000	0.000	0.001	0.000	0.000
828.00	0.000	0.000	0.001	0.000	0.000	0.001	0.000	0.000
829.00	-0.000	0.000	0.000	-0.000	-0.000	0.001	0.000	0.000
830.00	0.000	0.000	0.001	-0.000	0.000	0.001	0.000	0.000
831.00	0.000	0.000	0.001	0.000	0.000	0.001	0.000	0.000
832.00	0.000	0.000	0.001	0.000	0.000	0.001	0.000	0.000
833.00	0.000	0.000	0.000	-0.000	0.000	0.001	0.000	0.000
834.00	0.000	0.000	0.000	-0.000	0.000	0.001	0.000	0.000
835.00	0.000	0.000	0.000	-0.000	0.000	0.001	0.000	0.000
836.00	0.000	0.000	0.000	-0.000	0.000	0.001	0.000	0.000
837.00	0.000	0.000	0.000	0.000	0.000	0.001	0.000	0.000
838.00	0.000	0.000	0.000	0.000	0.000	0.001	0.000	0.000
839.00	0.000	0.000	0.000	0.000	0.000	0.001	0.000	0.000
840.00	0.000	0.000	0.000	0.000	0.000	0.001	0.000	0.000
841.00	0.000	0.000	0.000	0.000	0.000	0.001	0.000	0.000
842.00	0.000	0.000	0.001	0.000	0.000	0.001	0.000	0.000
843.00	0.000	0.000	0.000	-0.000	0.000	0.001	0.000	0.000
844.00	0.000	0.000	0.000	-0.000	0.000	0.001	0.000	0.000
845.00	0.000	0.000	0.001	0.000	0.000	0.001	0.000	0.000
846.00	0.000	0.000	0.001	-0.000	0.000	0.001	0.000	0.000
847.00	0.000	0.000	0.001	-0.000	0.000	0.001	0.000	0.000
848.00	0.000	0.000	0.001	-0.000	0.000	0.001	0.000	0.000
849.00	0.000	0.000	0.000	-0.000	0.000	0.001	0.000	0.000
850.00	0.000	0.000	0.000	-0.000	0.000	0.001	-0.000	0.000
