Wavelength nm.,MilliQ,CC4_28oct24_6R1,C50_16apr25_6R1,CC3_16apr25_01_fridge2,C50_16apr25_20R1,CS1_16apr25_01_fridge2,CC3_16apr25_BOT_fridge2,CP1_16apr25_BOTR1
190,0.002,0.475,0.429,0.439,0.474,0.182,0.428,0.183
191,0,0.434,0.388,0.401,0.437,0.168,0.389,0.173
192,0.001,0.399,0.352,0.368,0.404,0.159,0.356,0.162
193,0.001,0.358,0.315,0.328,0.369,0.149,0.32,0.15
194,0,0.326,0.286,0.298,0.342,0.142,0.293,0.141
195,0.001,0.296,0.261,0.271,0.317,0.135,0.268,0.134
196,0.001,0.272,0.239,0.249,0.295,0.13,0.247,0.128
197,0.001,0.25,0.22,0.23,0.276,0.126,0.229,0.122
198,0,0.231,0.202,0.213,0.26,0.122,0.213,0.117
199,0.001,0.216,0.189,0.199,0.247,0.119,0.199,0.113
200,0.001,0.202,0.178,0.186,0.236,0.116,0.188,0.11
201,0,0.19,0.167,0.175,0.225,0.113,0.177,0.106
202,0,0.179,0.159,0.165,0.216,0.11,0.169,0.103
203,0.001,0.17,0.152,0.158,0.209,0.108,0.162,0.101
204,0.001,0.162,0.145,0.151,0.201,0.106,0.155,0.099
205,0.001,0.154,0.139,0.145,0.194,0.104,0.149,0.096
206,0.001,0.148,0.134,0.139,0.188,0.102,0.144,0.094
207,0.001,0.143,0.13,0.135,0.183,0.1,0.14,0.093
208,0.001,0.139,0.126,0.131,0.178,0.099,0.136,0.091
209,0.001,0.134,0.122,0.127,0.172,0.096,0.131,0.089
210,0,0.13,0.119,0.123,0.166,0.095,0.128,0.087
211,0,0.126,0.116,0.12,0.161,0.093,0.125,0.085
212,0.001,0.122,0.113,0.117,0.155,0.091,0.122,0.083
213,0,0.118,0.11,0.114,0.15,0.089,0.119,0.081
214,0,0.115,0.108,0.111,0.145,0.088,0.116,0.08
215,0.001,0.113,0.105,0.109,0.139,0.086,0.113,0.079
216,0.001,0.11,0.103,0.106,0.134,0.085,0.111,0.077
217,0.001,0.107,0.1,0.104,0.129,0.083,0.108,0.075
218,0.001,0.104,0.098,0.101,0.124,0.082,0.106,0.074
219,0.001,0.102,0.096,0.099,0.119,0.081,0.104,0.073
220,0.001,0.1,0.094,0.097,0.115,0.079,0.102,0.071
221,0.001,0.097,0.093,0.095,0.11,0.078,0.1,0.07
222,0.001,0.095,0.091,0.093,0.106,0.077,0.098,0.069
223,0.001,0.093,0.089,0.092,0.102,0.076,0.097,0.068
224,0.001,0.091,0.087,0.09,0.099,0.075,0.095,0.067
225,0.001,0.09,0.086,0.088,0.095,0.074,0.093,0.066
226,0.001,0.088,0.084,0.086,0.092,0.072,0.091,0.065
227,0.001,0.086,0.083,0.085,0.089,0.071,0.09,0.064
228,0.001,0.084,0.081,0.083,0.086,0.07,0.088,0.062
229,0.001,0.083,0.08,0.082,0.084,0.069,0.087,0.061
230,0.001,0.081,0.078,0.08,0.082,0.068,0.085,0.06
231,0,0.079,0.077,0.079,0.079,0.067,0.084,0.059
232,0,0.078,0.076,0.077,0.077,0.066,0.082,0.058
233,0.001,0.077,0.074,0.076,0.076,0.065,0.081,0.057
234,0.001,0.075,0.073,0.074,0.074,0.064,0.08,0.057
235,0.001,0.074,0.072,0.073,0.073,0.063,0.078,0.056
236,0.001,0.073,0.071,0.072,0.071,0.063,0.077,0.055
237,0,0.071,0.07,0.071,0.07,0.062,0.076,0.054
238,0,0.07,0.069,0.07,0.068,0.061,0.075,0.053
239,0,0.069,0.068,0.069,0.067,0.06,0.073,0.053
240,0,0.068,0.067,0.068,0.066,0.059,0.072,0.052
241,0,0.067,0.066,0.067,0.065,0.059,0.071,0.051
242,0,0.066,0.065,0.066,0.064,0.058,0.07,0.05
243,0,0.066,0.065,0.065,0.063,0.057,0.07,0.05
244,0,0.065,0.064,0.065,0.063,0.056,0.069,0.049
245,0,0.064,0.063,0.064,0.062,0.056,0.068,0.048
246,0,0.063,0.062,0.063,0.061,0.055,0.067,0.048
247,0,0.063,0.062,0.063,0.061,0.054,0.067,0.047
248,0,0.062,0.061,0.062,0.06,0.054,0.066,0.047
249,0,0.062,0.061,0.062,0.059,0.053,0.065,0.046
250,0,0.061,0.06,0.061,0.059,0.053,0.065,0.046
251,0.001,0.06,0.06,0.061,0.058,0.052,0.064,0.046
252,0,0.06,0.059,0.06,0.058,0.052,0.064,0.045
253,0,0.059,0.059,0.06,0.057,0.051,0.063,0.045
254,0,0.059,0.058,0.059,0.057,0.051,0.063,0.044
255,0,0.058,0.058,0.059,0.056,0.05,0.062,0.044
256,0.001,0.058,0.057,0.058,0.055,0.05,0.062,0.043
257,0,0.057,0.057,0.058,0.055,0.049,0.061,0.043
258,0.001,0.057,0.056,0.058,0.054,0.049,0.061,0.043
259,0.001,0.056,0.056,0.057,0.054,0.049,0.06,0.042
260,0,0.056,0.055,0.056,0.053,0.048,0.06,0.042
261,0,0.055,0.055,0.056,0.053,0.048,0.059,0.041
262,0,0.054,0.054,0.055,0.052,0.047,0.058,0.041
263,0,0.054,0.054,0.055,0.051,0.047,0.058,0.041
264,0,0.053,0.053,0.054,0.051,0.046,0.057,0.04
265,0,0.053,0.053,0.054,0.05,0.046,0.057,0.04
266,0,0.052,0.052,0.053,0.049,0.045,0.056,0.039
267,0,0.051,0.051,0.052,0.048,0.045,0.055,0.039
268,0,0.051,0.05,0.052,0.048,0.045,0.055,0.039
269,0,0.05,0.05,0.051,0.047,0.044,0.054,0.038
270,0,0.049,0.049,0.05,0.047,0.044,0.053,0.038
271,0,0.048,0.048,0.05,0.046,0.043,0.053,0.037
272,0,0.048,0.048,0.049,0.045,0.043,0.052,0.037
273,0.001,0.047,0.047,0.048,0.045,0.043,0.051,0.036
274,0.001,0.046,0.046,0.047,0.044,0.042,0.051,0.036
275,0.001,0.046,0.046,0.047,0.043,0.042,0.05,0.036
276,0,0.045,0.045,0.046,0.042,0.041,0.049,0.035
277,0.001,0.044,0.044,0.045,0.042,0.041,0.049,0.035
278,0,0.043,0.043,0.044,0.041,0.04,0.048,0.034
279,0,0.042,0.042,0.044,0.04,0.04,0.047,0.034
280,0,0.042,0.042,0.043,0.04,0.04,0.046,0.034
281,0,0.041,0.041,0.042,0.039,0.039,0.045,0.033
282,0,0.04,0.04,0.041,0.038,0.039,0.044,0.033
283,0,0.04,0.039,0.04,0.037,0.038,0.044,0.032
284,0,0.039,0.038,0.04,0.036,0.038,0.043,0.032
285,0,0.038,0.038,0.039,0.036,0.037,0.042,0.031
286,0,0.037,0.037,0.038,0.035,0.037,0.042,0.031
287,0,0.036,0.036,0.037,0.034,0.036,0.04,0.03
288,0,0.035,0.035,0.036,0.034,0.036,0.039,0.03
289,0,0.035,0.035,0.036,0.033,0.035,0.039,0.029
290,0,0.034,0.034,0.035,0.032,0.035,0.038,0.029
291,0,0.033,0.033,0.034,0.032,0.034,0.037,0.028
292,0,0.032,0.032,0.033,0.031,0.034,0.036,0.028
293,0,0.032,0.032,0.032,0.03,0.033,0.036,0.027
294,0,0.031,0.031,0.032,0.03,0.033,0.035,0.027
295,0,0.03,0.03,0.031,0.029,0.032,0.034,0.027
296,0,0.03,0.03,0.03,0.028,0.032,0.033,0.026
297,0,0.029,0.029,0.03,0.028,0.032,0.033,0.026
298,0,0.029,0.029,0.029,0.027,0.031,0.033,0.025
299,0,0.028,0.028,0.028,0.027,0.031,0.032,0.025
300,0,0.027,0.027,0.028,0.026,0.03,0.031,0.024
301,0,0.027,0.027,0.027,0.026,0.03,0.031,0.024
302,0,0.026,0.026,0.027,0.025,0.03,0.03,0.024
303,0,0.026,0.026,0.026,0.025,0.029,0.03,0.024
304,0,0.025,0.025,0.026,0.024,0.029,0.029,0.023
305,0,0.025,0.025,0.025,0.024,0.028,0.028,0.023
306,0,0.024,0.024,0.024,0.023,0.028,0.028,0.022
307,0,0.024,0.023,0.024,0.023,0.028,0.028,0.022
308,0,0.023,0.023,0.023,0.022,0.027,0.027,0.022
309,0,0.023,0.022,0.023,0.022,0.027,0.026,0.021
310,0,0.022,0.022,0.023,0.022,0.027,0.026,0.021
311,0,0.022,0.022,0.022,0.021,0.026,0.026,0.021
312,0,0.022,0.022,0.022,0.021,0.026,0.025,0.02
313,0,0.021,0.021,0.022,0.021,0.026,0.025,0.02
314,0,0.021,0.021,0.021,0.02,0.025,0.024,0.02
315,0,0.02,0.02,0.02,0.02,0.025,0.024,0.02
316,0,0.02,0.02,0.02,0.019,0.025,0.023,0.019
317,0,0.02,0.019,0.02,0.019,0.024,0.023,0.019
318,0,0.019,0.019,0.02,0.019,0.024,0.023,0.019
319,0,0.019,0.019,0.019,0.018,0.024,0.022,0.018
320,0,0.019,0.018,0.019,0.018,0.023,0.022,0.018
321,0,0.018,0.018,0.018,0.018,0.023,0.022,0.018
322,0,0.018,0.018,0.018,0.017,0.023,0.021,0.018
323,0,0.017,0.017,0.017,0.017,0.022,0.02,0.017
324,0,0.017,0.017,0.017,0.017,0.022,0.02,0.017
325,0,0.017,0.017,0.017,0.016,0.022,0.02,0.017
326,0,0.017,0.017,0.017,0.016,0.022,0.02,0.017
327,0,0.017,0.016,0.017,0.016,0.022,0.02,0.016
328,0,0.016,0.016,0.016,0.016,0.021,0.019,0.016
329,0,0.016,0.016,0.016,0.015,0.021,0.019,0.016
330,0,0.016,0.015,0.016,0.015,0.021,0.019,0.016
331,0,0.016,0.015,0.015,0.015,0.021,0.018,0.016
332,0,0.015,0.015,0.015,0.014,0.02,0.018,0.015
333,0,0.015,0.015,0.015,0.014,0.02,0.018,0.015
334,0,0.015,0.015,0.015,0.014,0.02,0.017,0.015
335,0,0.014,0.014,0.014,0.014,0.02,0.017,0.014
336,0,0.014,0.014,0.014,0.013,0.019,0.017,0.014
337,0,0.014,0.014,0.014,0.013,0.019,0.016,0.014
338,0,0.014,0.013,0.014,0.013,0.019,0.016,0.014
339,0.001,0.014,0.013,0.014,0.013,0.019,0.016,0.014
340,0.002,0.015,0.015,0.015,0.014,0.02,0.017,0.015
341,0,0.013,0.013,0.013,0.013,0.018,0.015,0.013
342,0,0.012,0.013,0.013,0.012,0.018,0.015,0.013
343,0,0.012,0.012,0.012,0.012,0.018,0.014,0.013
344,0,0.012,0.012,0.012,0.012,0.017,0.015,0.013
345,0,0.012,0.012,0.012,0.012,0.017,0.014,0.013
346,0,0.012,0.012,0.012,0.011,0.017,0.014,0.012
347,0,0.011,0.011,0.012,0.011,0.016,0.013,0.012
348,0,0.011,0.011,0.011,0.011,0.016,0.013,0.012
349,0,0.011,0.011,0.011,0.011,0.016,0.013,0.012
350,0,0.011,0.011,0.011,0.01,0.016,0.013,0.011
351,0,0.011,0.011,0.011,0.01,0.016,0.013,0.011
352,0,0.01,0.01,0.01,0.01,0.015,0.013,0.011
353,0,0.01,0.01,0.01,0.01,0.015,0.013,0.011
354,0,0.01,0.01,0.01,0.01,0.015,0.012,0.011
355,0,0.01,0.01,0.01,0.01,0.015,0.012,0.011
356,0.001,0.01,0.01,0.01,0.01,0.015,0.012,0.011
357,0,0.01,0.01,0.01,0.009,0.015,0.012,0.01
358,0,0.01,0.01,0.009,0.009,0.014,0.012,0.01
359,0.001,0.01,0.009,0.009,0.009,0.014,0.011,0.01
360,0,0.009,0.01,0.009,0.009,0.014,0.011,0.01
361,0,0.009,0.009,0.009,0.009,0.014,0.011,0.01
362,0,0.009,0.009,0.009,0.009,0.014,0.011,0.01
363,0,0.009,0.009,0.009,0.008,0.014,0.01,0.009
364,0,0.008,0.008,0.008,0.008,0.013,0.01,0.009
365,0,0.008,0.008,0.008,0.008,0.013,0.01,0.009
366,0,0.008,0.008,0.008,0.008,0.013,0.01,0.009
367,0,0.008,0.008,0.008,0.008,0.013,0.01,0.009
368,0,0.008,0.008,0.008,0.008,0.013,0.01,0.008
369,0,0.008,0.008,0.008,0.008,0.013,0.009,0.008
370,0,0.007,0.008,0.007,0.007,0.012,0.009,0.008
371,0,0.008,0.008,0.007,0.008,0.012,0.009,0.008
372,0,0.007,0.008,0.007,0.007,0.012,0.009,0.008
373,0,0.007,0.007,0.007,0.007,0.012,0.009,0.008
374,0,0.007,0.007,0.007,0.007,0.011,0.009,0.008
375,0,0.007,0.007,0.007,0.007,0.012,0.009,0.008
376,0,0.007,0.007,0.007,0.007,0.012,0.009,0.008
377,0,0.007,0.007,0.007,0.006,0.011,0.008,0.007
378,0,0.007,0.007,0.007,0.006,0.011,0.008,0.007
379,0,0.007,0.007,0.007,0.006,0.011,0.008,0.007
380,0,0.006,0.007,0.006,0.006,0.011,0.008,0.007
381,0,0.006,0.007,0.006,0.006,0.011,0.008,0.007
382,0,0.006,0.006,0.006,0.006,0.01,0.008,0.007
383,0,0.006,0.006,0.006,0.006,0.01,0.008,0.007
384,0,0.006,0.006,0.006,0.006,0.01,0.007,0.007
385,0,0.006,0.006,0.006,0.006,0.01,0.007,0.007
386,0,0.006,0.006,0.006,0.005,0.01,0.007,0.006
387,0,0.006,0.006,0.006,0.006,0.01,0.007,0.006
388,0,0.006,0.006,0.006,0.005,0.01,0.007,0.006
389,0,0.006,0.006,0.005,0.005,0.01,0.007,0.006
390,0,0.005,0.006,0.005,0.005,0.009,0.007,0.006
391,0,0.005,0.005,0.005,0.005,0.009,0.006,0.006
392,0,0.005,0.005,0.005,0.005,0.009,0.006,0.006
393,0,0.005,0.005,0.005,0.005,0.009,0.006,0.006
394,0,0.005,0.005,0.005,0.005,0.009,0.006,0.006
395,0,0.005,0.005,0.005,0.005,0.009,0.006,0.006
396,0,0.005,0.005,0.005,0.005,0.009,0.006,0.005
397,0,0.005,0.005,0.005,0.005,0.008,0.006,0.005
398,0,0.005,0.005,0.004,0.004,0.008,0.006,0.005
399,0,0.005,0.005,0.004,0.004,0.008,0.006,0.005
400,0,0.005,0.005,0.004,0.004,0.008,0.005,0.005
401,0,0.004,0.005,0.004,0.004,0.008,0.005,0.005
402,0,0.004,0.005,0.004,0.004,0.008,0.005,0.005
403,0,0.004,0.005,0.004,0.004,0.008,0.005,0.005
404,0,0.004,0.005,0.004,0.004,0.008,0.005,0.005
405,0,0.004,0.005,0.004,0.004,0.008,0.005,0.005
406,0,0.004,0.004,0.004,0.004,0.008,0.005,0.005
407,0,0.004,0.004,0.004,0.004,0.008,0.005,0.005
408,0,0.004,0.004,0.004,0.004,0.008,0.005,0.005
409,0,0.004,0.004,0.004,0.004,0.007,0.005,0.005
410,0,0.004,0.004,0.004,0.004,0.007,0.005,0.004
411,0,0.004,0.004,0.004,0.004,0.007,0.005,0.004
412,0,0.004,0.004,0.003,0.004,0.007,0.005,0.004
413,0,0.004,0.004,0.003,0.003,0.007,0.005,0.004
414,0,0.004,0.004,0.004,0.003,0.007,0.005,0.004
415,0,0.004,0.004,0.003,0.003,0.007,0.004,0.004
416,0,0.004,0.004,0.003,0.003,0.007,0.004,0.004
417,0,0.003,0.004,0.003,0.003,0.007,0.004,0.004
418,0,0.003,0.004,0.003,0.003,0.007,0.004,0.004
419,0,0.003,0.004,0.003,0.003,0.007,0.004,0.004
420,0,0.003,0.003,0.003,0.003,0.007,0.004,0.004
421,0,0.003,0.003,0.003,0.003,0.006,0.004,0.004
422,0,0.003,0.003,0.003,0.003,0.006,0.004,0.004
423,0,0.003,0.003,0.003,0.003,0.006,0.004,0.004
424,0,0.003,0.003,0.003,0.003,0.006,0.004,0.004
425,0,0.003,0.003,0.003,0.003,0.006,0.004,0.004
426,0,0.003,0.003,0.003,0.003,0.006,0.004,0.004
427,0,0.003,0.003,0.003,0.003,0.006,0.004,0.003
428,0,0.003,0.003,0.003,0.003,0.006,0.004,0.003
429,0,0.003,0.003,0.003,0.003,0.006,0.004,0.003
430,0,0.003,0.003,0.003,0.003,0.006,0.003,0.003
431,0,0.003,0.003,0.002,0.002,0.006,0.003,0.003
432,0,0.003,0.003,0.002,0.003,0.006,0.003,0.003
433,0,0.003,0.003,0.002,0.002,0.006,0.003,0.003
434,0,0.002,0.003,0.002,0.002,0.005,0.003,0.003
435,0,0.002,0.003,0.002,0.002,0.005,0.003,0.003
436,0,0.002,0.003,0.002,0.002,0.005,0.003,0.003
437,0,0.002,0.003,0.002,0.002,0.005,0.003,0.003
438,0,0.002,0.003,0.002,0.002,0.005,0.003,0.003
439,0,0.002,0.003,0.002,0.002,0.005,0.003,0.003
440,0,0.002,0.003,0.002,0.002,0.005,0.003,0.003
441,0,0.002,0.003,0.002,0.002,0.005,0.003,0.003
442,0,0.002,0.002,0.002,0.002,0.005,0.003,0.003
443,0,0.002,0.002,0.002,0.002,0.005,0.003,0.003
444,0,0.002,0.002,0.002,0.002,0.005,0.003,0.003
445,0,0.002,0.002,0.002,0.002,0.005,0.003,0.003
446,0,0.002,0.002,0.002,0.002,0.005,0.002,0.003
447,0,0.002,0.002,0.002,0.002,0.005,0.003,0.003
448,0,0.002,0.002,0.002,0.002,0.005,0.002,0.002
449,0,0.002,0.002,0.002,0.002,0.005,0.002,0.002
450,0,0.002,0.002,0.002,0.002,0.005,0.002,0.002
451,0,0.002,0.002,0.002,0.002,0.005,0.002,0.002
452,0,0.002,0.002,0.002,0.002,0.005,0.002,0.002
453,0,0.002,0.002,0.002,0.002,0.004,0.002,0.002
454,0,0.002,0.002,0.002,0.002,0.004,0.002,0.002
455,0,0.002,0.002,0.002,0.002,0.004,0.002,0.002
456,0,0.002,0.002,0.002,0.002,0.004,0.002,0.002
457,0,0.002,0.002,0.002,0.002,0.004,0.002,0.002
458,0,0.002,0.002,0.002,0.002,0.004,0.002,0.002
459,0,0.002,0.002,0.002,0.002,0.004,0.002,0.002
460,0,0.002,0.002,0.002,0.001,0.004,0.002,0.002
461,0,0.002,0.002,0.001,0.001,0.004,0.002,0.002
462,0,0.002,0.002,0.001,0.001,0.004,0.002,0.002
463,0,0.002,0.002,0.001,0.001,0.004,0.002,0.002
464,0,0.002,0.002,0.001,0.001,0.004,0.002,0.002
465,0,0.002,0.002,0.001,0.001,0.004,0.002,0.002
466,0,0.002,0.002,0.001,0.001,0.004,0.002,0.002
467,0,0.002,0.002,0.001,0.001,0.004,0.002,0.002
468,0,0.002,0.002,0.001,0.001,0.004,0.002,0.002
469,0,0.002,0.002,0.001,0.001,0.004,0.002,0.002
470,0,0.001,0.002,0.001,0.001,0.004,0.002,0.002
471,0,0.001,0.002,0.001,0.001,0.004,0.002,0.002
472,0,0.001,0.002,0.001,0.001,0.004,0.002,0.002
473,0,0.001,0.002,0.001,0.001,0.004,0.002,0.002
474,0,0.001,0.002,0.001,0.001,0.004,0.002,0.002
475,0,0.001,0.002,0.001,0.001,0.004,0.002,0.002
476,0,0.001,0.002,0.001,0.001,0.004,0.002,0.002
477,0,0.001,0.002,0.001,0.001,0.003,0.002,0.001
478,0,0.001,0.002,0.001,0.001,0.003,0.002,0.001
479,0,0.001,0.002,0.001,0.001,0.003,0.002,0.001
480,0,0.001,0.002,0.001,0.001,0.003,0.001,0.001
481,0,0.001,0.001,0.001,0.001,0.003,0.001,0.001
482,0,0.001,0.001,0.001,0.001,0.003,0.001,0.001
483,0,0.001,0.001,0.001,0.001,0.003,0.001,0.001
484,0,0.001,0.001,0.001,0.001,0.003,0.001,0.001
485,0,0.001,0.001,0.001,0.001,0.003,0.001,0.001
486,0,0.001,0.001,0.001,0.001,0.003,0.001,0.001
487,0,0.001,0.001,0.001,0.001,0.003,0.001,0.001
488,0,0.001,0.001,0.001,0.001,0.003,0.001,0.001
489,0,0.001,0.001,0.001,0.001,0.003,0.001,0.001
490,0,0.001,0.001,0.001,0.001,0.003,0.001,0.001
491,0,0.001,0.001,0.001,0.001,0.003,0.001,0.001
492,0,0.001,0.001,0.001,0.001,0.003,0.001,0.001
493,0,0.001,0.001,0.001,0.001,0.003,0.001,0.001
494,0,0.001,0.001,0.001,0.001,0.003,0.001,0.001
495,0,0.001,0.001,0.001,0.001,0.003,0.001,0.001
496,0,0.001,0.001,0.001,0.001,0.003,0.001,0.001
497,0,0.001,0.001,0.001,0.001,0.003,0.001,0.001
498,0,0.001,0.001,0.001,0.001,0.003,0.001,0.001
499,0,0.001,0.001,0.001,0.001,0.003,0.001,0.001
500,0,0.001,0.001,0.001,0.001,0.003,0.001,0.001
501,0,0.001,0.001,0.001,0.001,0.003,0.001,0.001
502,0,0.001,0.001,0.001,0.001,0.003,0.001,0.001
503,0,0.001,0.001,0.001,0.001,0.003,0.001,0.001
504,0,0.001,0.001,0.001,0.001,0.003,0.001,0.001
505,0,0.001,0.001,0.001,0.001,0.003,0.001,0.001
506,0,0.001,0.001,0.001,0.001,0.003,0.001,0.001
507,0,0.001,0.001,0.001,0.001,0.003,0.001,0.001
508,0,0.001,0.001,0.001,0.001,0.003,0.001,0.001
509,0,0.001,0.001,0.001,0.001,0.003,0.001,0.001
510,0,0.001,0.001,0.001,0.001,0.003,0.001,0.001
511,0,0.001,0.001,0.001,0.001,0.003,0.001,0.001
512,0,0.001,0.001,0.001,0.001,0.003,0.001,0.001
513,0,0.001,0.001,0.001,0.001,0.003,0.001,0.001
514,0,0.001,0.001,0.001,0.001,0.003,0.001,0.001
515,0,0.001,0.001,0.001,0.001,0.003,0.001,0.001
516,0,0.001,0.001,0.001,0.001,0.003,0.001,0.001
517,0,0.001,0.001,0.001,0.001,0.003,0.001,0.001
518,0,0.001,0.001,0.001,0.001,0.003,0.001,0.001
519,0,0.001,0.001,0.001,0.001,0.003,0.001,0.001
520,0,0.001,0.001,0.001,0.001,0.003,0.001,0.001
521,0,0.001,0.001,0,0.001,0.003,0.001,0.001
522,0,0.001,0.001,0.001,0.001,0.003,0.001,0.001
523,0,0.001,0.001,0,0.001,0.002,0.001,0.001
524,0,0.001,0.001,0,0.001,0.002,0.001,0.001
525,0,0.001,0.001,0,0.001,0.002,0.001,0.001
526,0,0.001,0.001,0,0,0.002,0.001,0.001
527,0,0.001,0.001,0,0,0.002,0.001,0.001
528,0,0.001,0.001,0,0.001,0.002,0.001,0.001
529,0,0,0.001,0,0,0.002,0.001,0.001
530,0,0.001,0.001,0,0,0.002,0.001,0.001
531,0,0.001,0.001,0,0,0.002,0.001,0.001
532,0,0.001,0.001,0,0,0.002,0.001,0.001
533,0,0.001,0.001,0,0,0.002,0.001,0.001
534,0,0.001,0.001,0,0,0.002,0.001,0.001
535,0,0.001,0.001,0.001,0.001,0.002,0.001,0.001
536,0.001,0.002,0.002,0.002,0.002,0.003,0.002,0.002
537,0,0.001,0.001,0,0.001,0.002,0.001,0.001
538,0,0,0.001,0,0,0.002,0.001,0.001
539,0,0,0.001,0,0,0.002,0,0.001
540,0,0,0.001,0,0,0.002,0.001,0.001
541,0,0,0.001,0,0,0.002,0,0.001
542,0,0,0.001,0,0,0.002,0,0.001
543,0,0,0.001,0,0,0.002,0,0.001
544,0,0,0.001,0,0,0.002,0,0.001
545,0,0,0.001,0,0,0.002,0.001,0.001
546,0,0,0.001,0,0,0.002,0,0.001
547,0,0,0.001,0,0,0.002,0,0.001
548,0,0,0.001,0,0,0.002,0,0.001
549,0,0,0.001,0,0,0.002,0,0.001
550,0,0,0.001,0,0,0.002,0,0.001
551,0,0,0.001,0,0,0.002,0,0.001
552,0,0,0.001,0,0,0.002,0,0.001
553,0,0,0.001,0,0,0.002,0,0.001
554,0,0,0.001,0,0,0.002,0,0.001
555,0,0,0.001,0,0,0.002,0.001,0.001
556,0,0,0.001,0,0,0.002,0,0
557,0,0,0.001,0,0,0.002,0.001,0
558,0,0,0.001,0,0,0.002,0,0.001
559,0,0,0.001,0,0,0.002,0,0.001
560,0,0,0.001,0,0,0.002,0,0.001
561,0,0,0.001,0,0,0.002,0,0.001
562,0,0,0.001,0,0,0.002,0,0.001
563,0,0,0.001,0,0,0.002,0,0
564,0,0,0.001,0,0,0.002,0,0
565,0,0,0.001,0,0,0.002,0,0
566,0,0,0.001,0,0,0.002,0,0
567,0,0,0.001,0,0,0.002,0,0.001
568,0,0,0.001,0,0,0.002,0,0.001
569,0,0,0.001,0,0,0.002,0,0
570,0,0,0.001,0,0,0.002,0,0
571,0,0,0.001,0,0,0.002,0,0
572,0,0,0.001,0,0,0.002,0,0
573,0,0,0.001,0,0,0.002,0,0
574,0,0,0.001,0,0,0.002,0,0
575,0,0,0.001,0,0,0.002,0,0
576,0,0,0.001,0,0,0.002,0,0
577,0,0,0.001,0,0,0.002,0,0
578,0,0,0.001,0,0,0.002,0,0
579,0,0,0.001,0,0,0.002,0,0
580,0,0,0.001,0,0,0.002,0,0
581,0,0,0.001,0,0,0.002,0,0
582,0,0,0.001,0,0,0.002,0.001,0
583,0,0,0.001,0,0,0.002,0,0
584,0,0,0.001,0,0,0.002,0,0.001
585,0,0,0.001,0,0,0.002,0,0.001
586,0,0,0.001,0,0,0.002,0,0
587,0,0,0.001,0,0,0.002,0,0
588,0,0,0.001,0,0,0.002,0,0
589,0,0,0.001,0,0,0.002,0,0
590,0,0,0.001,0,0,0.002,0,0
591,0,0,0.001,0,0,0.002,0,0
592,0,0,0.001,0,0,0.002,0,0
593,0,0,0.001,0,0,0.002,0,0
594,0,0,0.001,0,0,0.002,0,0
595,0,0,0.001,0,0,0.002,0,0
596,0,0,0.001,0,0,0.002,0,0
597,0,0,0.001,0,0,0.001,0,0
598,0,0,0.001,0,0,0.002,0,0
599,0,0,0.001,0,0,0.002,0,0
600,0,0,0.001,0,0,0.001,0,0
601,0,0,0.001,0,0,0.001,0,0
602,0,0,0.001,0,0,0.001,0,0
603,0,0,0.001,0,0,0.002,0,0
604,0,0,0,0,0,0.001,0,0
605,0,0,0,0,0,0.001,0,0
606,0,0,0,0,0,0.001,0,0
607,0,0,0,0,0,0.001,0,0
608,0,0,0,0,0,0.001,0,0
609,0,0,0,0,0,0.001,0,0
610,0,0,0.001,0,0,0.001,0,0
611,0,0,0.001,0,0,0.001,0,0
612,0,0,0.001,0,0,0.001,0,0
613,0,0,0.001,0,0,0.001,0,0
614,0,0,0.001,0,0,0.001,0,0
615,0,0,0.001,0,0,0.001,0,0
616,0,0,0.001,0,0,0.001,0,0
617,0,0,0,0,0,0.001,0,0
618,0,0,0.001,0,0,0.001,0,0
619,0,0,0,0,0,0.001,0,0
620,0,0,0,0,0,0.001,0,0
621,0,0,0,0,0,0.001,0,0
622,0,0,0.001,0,0,0.001,0,0
623,0,0,0,0,0,0.001,0,0
624,0,0,0.001,0,0,0.001,0,0
625,0,0,0,0,0,0.001,0,0
626,0,0,0,0,0,0.001,0,0
627,0,0,0,0,0,0.001,0,0
628,0,0,0,0,0,0.001,0,0
629,0,0,0,0,0,0.001,0,0
630,0,0,0.001,0,0,0.001,0,0
631,0,0,0,0,0,0.001,0,0
632,0,0,0,0,0,0.001,0,0
633,0,0,0,0,0,0.001,0,0
634,0,0,0.001,0,0,0.001,0,0
635,0,0,0.001,0,0,0.001,0,0
636,0,0,0,0,0,0.001,0,0
637,0,0,0,0,0,0.001,0,0
638,0,0,0,0,0,0.001,0,0
639,0,0,0,0,0,0.001,0,0
640,0,0,0,0,0,0.001,0,0
641,0,0,0,0,0,0.001,0,0
642,0,0,0,0,0,0.001,0,0
643,0,0,0,0,0,0.001,0,0
644,0,0,0,0,0,0.001,0,0
645,0,0,0,0,0,0.001,0,0
646,0,0,0,0,0,0.001,0,0
647,0,0,0,0,0,0.001,0,0
648,0,0,0.001,0,0,0.001,0,0
649,0,0,0.001,0,0,0.001,0,0
650,0,0,0.001,0,0,0.001,0,0
651,0,0,0.001,0,0,0.001,0,0
652,0,0,0,0,0,0.001,0,0
653,0,0,0.001,0,0,0.001,0,0
654,0,0,0.001,0,0,0.001,0,0
655,0,0,0.001,0,0,0.001,0,0
656,0,0,0.001,0,0,0.001,0,0
657,0,0,0,0,0,0.001,0,0
658,0,0,0,0,0,0.001,0,0
659,0,0,0,0,0,0.001,0,0
660,0,0,0,0,0,0.001,0,0
661,0,0,0.001,0,0,0.001,0,0
662,0,0,0,0,0,0.001,0,0
663,0,0,0,0,0,0.001,0,0
664,0,0,0.001,0,0,0.001,0,0
665,0,0,0.001,0,0,0.001,0,0
666,0,0,0.001,0,0,0.001,0,0
667,0,0,0,0,0,0.001,0,0
668,0,0,0,0,0,0.001,0,0
669,0,0,0.001,0,0,0.001,0,0
670,0,0,0.001,0,0,0.001,0,0
671,0,0,0.001,0,0,0.001,0,0
672,0,0,0.001,0,0,0.001,0,0
673,0,0,0.001,0,0,0.001,0,0
674,0,0,0.001,0,0,0.001,0,0
675,0,0,0.001,0,0,0.001,0,0
676,0,0,0.001,0,0,0.001,0,0
677,0,0,0.001,0,0,0.001,0,0
678,0,0,0.001,0,0,0.001,0,0
679,0,0,0,0,0,0.001,0,0
680,0,0,0,0,0,0.001,0,0
681,0,0,0,0,0,0.001,0,0
682,0,0,0.001,0,0,0.001,0,0
683,0,0,0,0,0,0.001,0,0
684,0,0,0.001,0,0,0.001,0,0
685,0,0,0.001,0,0,0.001,0,0
686,0,0,0,0,0,0.001,0,0
687,0,0,0,0,0,0.001,0,0
688,0,0,0,0,0,0.001,0,0
689,0,0,0.001,0,0,0.001,0,0
690,0,0,0.001,0,0,0.001,0,0
691,0,0,0,0,0,0.001,0,0
692,0,0,0,0,0,0.001,0,0
693,0,0,0.001,0,0,0.001,0,0
694,0,0,0.001,0,0,0.001,0,0
695,0,0,0.001,0,0,0.001,0,0
696,0,0,0,0,0,0.001,0,0
697,0,0,0,0,0,0.001,0,0
698,0,0,0,0,0,0.001,0,0
699,0,0,0,0,0,0.001,0,0
700,0,0,0,0,0,0.001,0,0
701,0,0,0.001,0,0,0.001,0,0
702,0,0,0.001,0,0,0.001,0,0
703,0,0,0,0,0,0.001,0,0
704,0,0,0,0,0,0.001,0,0
705,0,0,0.001,0,0,0.001,0,0
706,0,0,0.001,0,0,0.001,0,0
707,0,0,0.001,0,0,0.001,0,0
708,0,0,0,0,0,0.001,0,0
709,0,0,0,0,0,0.001,0,0
710,0,0,0.001,0,0,0.001,0,0
711,0,0,0,0,0,0.001,0,0
712,0,0,0.001,0,0,0.001,0,0
713,0,0,0,0,0,0.001,0,0
714,0,0,0,0,0,0.001,0,0
715,0,0,0,0,0,0.001,0,0
716,0,0,0,0,0,0.001,0,0
717,0,0,0,0,0,0.001,0,0
718,0,0,0,0,0,0.001,0,0
719,0,0,0,0,0,0.001,0,0
720,0,0,0,0,0,0.001,0,0
721,0,0,0,0,0,0.001,0,0
722,0,0,0,0,0,0.001,0,0
723,0,0,0,0,0,0.001,0,0
724,0,0,0,0,0,0.001,0,0
725,0,0,0,0,0,0.001,0,0
726,0,0,0,0,0,0.001,0,0
727,0,0,0,0,0,0.001,0,0
728,0,0,0,0,0,0.001,0,0
729,0,0,0,0,0,0.001,0,0
730,0,0,0,0,0,0.001,0,0
731,0,0,0,0,0,0.001,0,0
732,0,0,0,0,0,0.001,0,0
733,0,0,0,0,0,0.001,0,0
734,0,0,0,0,0,0.001,0,0
735,0,0,0,0,0,0.001,0,0
736,0,0,0,0,0,0.001,0,0
737,0,0,0,0,0,0.001,0,0
738,0,0,0,0,0,0.001,0,0
739,0,0,0,0,0,0.001,0,0
740,0,0,0,0,0,0.001,0,0
741,0,0,0,0,0,0.001,0,0
742,0,0,0,0,0,0.001,0,0
743,0,0,0,0,0,0.001,0,0
744,0,0,0,0,0,0.001,0,0
745,0,0,0,0,0,0.001,0,0
746,0,0,0,0,0,0.001,0,0
747,0,0,0.001,0,0,0.001,0,0
748,0,0,0,0,0,0.001,0,0
749,0,0,0,0,0,0.001,0,0
750,0,0,0,0,0,0.001,0,0
751,0,0,0,0,0,0.001,0,0
752,0,0,0,0,0,0.001,0,0
753,0,0,0,0,0,0.001,0,0
754,0,0,0,0,0,0.001,0,0
755,0,0,0,0,0,0.001,0,0
756,0,0,0,0,0,0.001,0,0
757,0,0,0,0,0,0.001,0,0
758,0,0,0,0,0,0.001,0,0
759,0,0,0.001,0,0,0.001,0,0
760,0.001,0.001,0.002,0.001,0.001,0.002,0.001,0.001
761,0,0,0.001,0,0,0.001,0,0
762,0,0,0,0,0,0.001,0,0
763,0,0,0,0,0,0.001,0,0
764,0,0,0,0,0,0.001,0,0
765,0,0,0,0,0,0.001,0,0
766,0,0,0,0,0,0.001,0,0
767,0,0,0,0,0,0.001,0,0
768,0,0,0,0,0,0.001,0,0
769,0,0,0,0,0,0.001,0,0
770,0,0,0,0,0,0.001,0,0
771,0,0,0,0,0,0.001,0,0
772,0,0,0,0,0,0.001,0,0
773,0,0,0,0,0,0.001,0,0
774,0,0,0,0,0,0.001,0,0
775,0,0,0,0,0,0.001,0,0
776,0,0,0,0,0,0.001,0,0
777,0,0,0,0,0,0.001,0,0
778,0,0,0,0,0,0.001,0,0
779,0,0,0,0,0,0.001,0,0
780,0,0,0,0,0,0.001,0,0
781,0,0,0,0,0,0.001,0,0
782,0,0,0,0,0,0.001,0,0
783,0,0,0,0,0,0.001,0,0
784,0,0,0,0,0,0.001,0,0
785,0,0,0,0,0,0.001,0,0
786,0,0,0,0,0,0.001,0,0
787,0,0,0,0,0,0.001,0,0
788,0,0,0,0,0,0.001,0,0
789,0,0,0,0,0,0.001,0,0
790,0,0,0,0,0,0.001,0,0
791,0,0,0,0,0,0.001,0,0
792,0,0,0,0,0,0.001,0,0
793,0,0,0,0,0,0.001,0,0
794,0,0,0,0,0,0.001,0,0
795,0,0,0,0,0,0.001,0,0
796,0,0,0,0,0,0.001,0,0
797,0,0,0,0,0,0.001,0,0
798,0,0,0,0,0,0.001,0,0
799,0,0,0,0,0,0.001,0,0
800,0,0,0,0,0,0.001,0,0
801,0,0,0,0,0,0.001,0,0
802,0,0,0,0,0,0.001,0,0
803,0,0,0.001,0,0,0.001,0,0
804,0,0,0.001,0,0,0.001,0,0
805,0,0,0.001,0,0,0.001,0,0
806,0,0,0.001,0,0,0.001,0,0
807,0,0,0.001,0,0,0.001,0,0
808,0,0,0.001,0,0,0.001,0,0
809,0,0,0.001,0,0,0.001,0,0
810,0,0,0.001,0,0,0.001,0,0
811,0,0,0.001,0,0,0.001,0,0
812,0,0,0.001,0,0,0.001,0,0
813,0,0,0.001,0,0,0.001,0,0
814,0,0,0,0,0,0.001,0,0
815,0,0,0.001,0,0,0.001,0,0
816,0,0,0.001,0,0,0.001,0,0
817,0,0,0.001,0,0,0.001,0,0
818,0,0,0.001,0,0,0.001,0,0
819,0,0,0.001,0,0,0.001,0,0
820,0,0,0.001,0,0,0.001,0,0
821,0,0,0.001,0,0,0.001,0,0
822,0,0,0.001,0,0,0.001,0,0
823,0,0,0,0,0,0.001,0,0
824,0,0,0,0,0,0.001,0,0
825,0,0,0,0,0,0.001,0,0
826,0,0,0,0,0,0.001,0,0
827,0,0,0.001,0,0,0.001,0,0
828,0,0,0.001,0,0,0.001,0,0
829,0,0,0,0,0,0.001,0,0
830,0,0,0.001,0,0,0.001,0,0
831,0,0,0.001,0,0,0.001,0,0
832,0,0,0.001,0,0,0.001,0,0
833,0,0,0,0,0,0.001,0,0
834,0,0,0,0,0,0.001,0,0
835,0,0,0,0,0,0.001,0,0
836,0,0,0,0,0,0.001,0,0
837,0,0,0,0,0,0.001,0,0
838,0,0,0,0,0,0.001,0,0
839,0,0,0,0,0,0.001,0,0
840,0,0,0,0,0,0.001,0,0
841,0,0,0,0,0,0.001,0,0
842,0,0,0.001,0,0,0.001,0,0
843,0,0,0,0,0,0.001,0,0
844,0,0,0,0,0,0.001,0,0
845,0,0,0.001,0,0,0.001,0,0
846,0,0,0.001,0,0,0.001,0,0
847,0,0,0.001,0,0,0.001,0,0
848,0,0,0.001,0,0,0.001,0,0
849,0,0,0,0,0,0.001,0,0
850,0,0,0,0,0,0.001,0,0
