Wavelength nm.,MilliQ,CC3_1aug24_01_midnight,CC3_1aug24_BOT_6am,CC3_1aug24_01_6am,CC4_11jul24_9r1,CC3_1aug24_BOT_midnight,CC4_15aug24_BOTr2,CC3_19jun24_01r1,CS2_19jun24_01r2,CC4_15aug24_9r2,CC2_22may24_BOTr2,CC3_31jul24_01_noon,CC3_31jul24_BOT_noon,CP1_15aug24_01r1
190,0.005,0.402,0.395,0.372,0.427,0.396,0.432,0.41,0.491,0.423,0.389,0.365,0.391,0.358
191,0.005,0.363,0.361,0.343,0.39,0.367,0.396,0.377,0.447,0.392,0.354,0.331,0.356,0.343
192,0.005,0.332,0.329,0.314,0.358,0.335,0.367,0.345,0.415,0.361,0.327,0.299,0.327,0.33
193,0.005,0.299,0.293,0.28,0.325,0.302,0.332,0.31,0.378,0.328,0.296,0.267,0.295,0.314
194,0.004,0.269,0.265,0.254,0.298,0.276,0.306,0.283,0.354,0.303,0.272,0.242,0.27,0.302
195,0.004,0.243,0.239,0.229,0.273,0.251,0.282,0.258,0.335,0.279,0.249,0.218,0.247,0.291
196,0.005,0.222,0.219,0.209,0.252,0.23,0.262,0.236,0.322,0.26,0.23,0.198,0.227,0.281
197,0.004,0.203,0.2,0.191,0.235,0.212,0.244,0.218,0.311,0.243,0.213,0.183,0.21,0.273
198,0.004,0.187,0.184,0.175,0.219,0.195,0.229,0.201,0.302,0.228,0.198,0.168,0.195,0.266
199,0.004,0.173,0.17,0.162,0.206,0.182,0.217,0.187,0.295,0.215,0.186,0.156,0.182,0.26
200,0.004,0.161,0.159,0.151,0.195,0.17,0.206,0.175,0.289,0.204,0.176,0.145,0.172,0.256
201,0.003,0.15,0.148,0.141,0.184,0.16,0.196,0.164,0.283,0.193,0.166,0.135,0.161,0.25
202,0.003,0.14,0.138,0.132,0.175,0.151,0.187,0.154,0.277,0.185,0.158,0.127,0.153,0.245
203,0.003,0.133,0.131,0.125,0.168,0.143,0.18,0.147,0.272,0.178,0.151,0.12,0.146,0.241
204,0.003,0.126,0.125,0.118,0.161,0.136,0.173,0.139,0.267,0.171,0.144,0.114,0.139,0.237
205,0.002,0.119,0.119,0.112,0.154,0.13,0.167,0.133,0.261,0.165,0.139,0.108,0.133,0.233
206,0.002,0.114,0.114,0.107,0.149,0.125,0.161,0.128,0.255,0.16,0.134,0.104,0.128,0.229
207,0.002,0.11,0.11,0.103,0.144,0.12,0.156,0.123,0.249,0.155,0.129,0.1,0.123,0.225
208,0.002,0.106,0.106,0.099,0.14,0.116,0.152,0.119,0.242,0.15,0.125,0.097,0.119,0.221
209,0.002,0.102,0.102,0.095,0.135,0.112,0.147,0.115,0.234,0.145,0.122,0.093,0.116,0.217
210,0.002,0.099,0.099,0.092,0.131,0.109,0.142,0.112,0.226,0.14,0.119,0.09,0.112,0.213
211,0.002,0.095,0.096,0.089,0.127,0.105,0.138,0.108,0.218,0.136,0.115,0.087,0.109,0.209
212,0.002,0.092,0.093,0.087,0.122,0.102,0.133,0.105,0.208,0.131,0.112,0.084,0.106,0.205
213,0.002,0.09,0.09,0.084,0.118,0.1,0.128,0.102,0.198,0.126,0.109,0.082,0.103,0.201
214,0.002,0.087,0.088,0.081,0.114,0.097,0.123,0.099,0.188,0.122,0.106,0.079,0.1,0.197
215,0.002,0.085,0.085,0.079,0.111,0.094,0.119,0.097,0.178,0.117,0.104,0.077,0.098,0.193
216,0.002,0.082,0.083,0.077,0.107,0.092,0.114,0.094,0.168,0.113,0.101,0.075,0.095,0.189
217,0.002,0.08,0.081,0.075,0.104,0.09,0.11,0.092,0.159,0.109,0.099,0.074,0.093,0.185
218,0.002,0.078,0.079,0.073,0.101,0.088,0.106,0.09,0.149,0.104,0.097,0.072,0.091,0.182
219,0.002,0.077,0.077,0.071,0.098,0.086,0.102,0.088,0.14,0.101,0.094,0.07,0.089,0.178
220,0.002,0.075,0.075,0.069,0.095,0.084,0.098,0.086,0.131,0.097,0.093,0.068,0.087,0.175
221,0.001,0.073,0.074,0.068,0.092,0.082,0.094,0.084,0.123,0.093,0.091,0.067,0.085,0.172
222,0.001,0.072,0.072,0.066,0.09,0.081,0.091,0.082,0.115,0.09,0.089,0.065,0.083,0.169
223,0.002,0.07,0.071,0.065,0.087,0.079,0.088,0.081,0.108,0.087,0.087,0.064,0.082,0.166
224,0.002,0.069,0.069,0.064,0.085,0.078,0.085,0.079,0.101,0.084,0.086,0.063,0.08,0.164
225,0.002,0.068,0.068,0.062,0.083,0.076,0.082,0.078,0.095,0.081,0.084,0.062,0.079,0.161
226,0.002,0.066,0.067,0.061,0.081,0.075,0.079,0.076,0.089,0.078,0.083,0.06,0.077,0.158
227,0.001,0.065,0.065,0.06,0.079,0.073,0.077,0.074,0.083,0.076,0.081,0.059,0.076,0.156
228,0.001,0.064,0.064,0.058,0.077,0.072,0.074,0.073,0.078,0.073,0.079,0.058,0.074,0.153
229,0.001,0.062,0.063,0.057,0.075,0.071,0.072,0.072,0.074,0.071,0.078,0.057,0.073,0.151
230,0.001,0.061,0.062,0.056,0.074,0.07,0.07,0.07,0.07,0.069,0.077,0.056,0.072,0.148
231,0.001,0.06,0.06,0.055,0.072,0.068,0.068,0.069,0.066,0.067,0.075,0.055,0.07,0.146
232,0.001,0.059,0.059,0.054,0.071,0.067,0.067,0.068,0.063,0.066,0.074,0.054,0.069,0.144
233,0.001,0.058,0.058,0.053,0.069,0.066,0.065,0.067,0.061,0.064,0.073,0.053,0.068,0.142
234,0.001,0.057,0.058,0.053,0.068,0.065,0.064,0.066,0.059,0.063,0.072,0.052,0.067,0.14
235,0.001,0.056,0.057,0.051,0.067,0.064,0.063,0.064,0.056,0.061,0.071,0.051,0.066,0.138
236,0.001,0.055,0.056,0.05,0.065,0.063,0.061,0.063,0.054,0.06,0.07,0.05,0.065,0.136
237,0.001,0.055,0.055,0.05,0.064,0.062,0.06,0.062,0.053,0.059,0.069,0.05,0.064,0.134
238,0.001,0.054,0.054,0.049,0.063,0.061,0.059,0.061,0.051,0.058,0.068,0.049,0.063,0.132
239,0.001,0.053,0.053,0.048,0.063,0.061,0.058,0.061,0.05,0.057,0.067,0.048,0.063,0.13
240,0.001,0.052,0.052,0.048,0.061,0.06,0.057,0.06,0.049,0.056,0.066,0.048,0.062,0.129
241,0.001,0.051,0.052,0.047,0.061,0.059,0.056,0.059,0.048,0.055,0.065,0.047,0.061,0.127
242,0.001,0.051,0.051,0.047,0.06,0.059,0.055,0.058,0.047,0.054,0.064,0.046,0.061,0.126
243,0.001,0.05,0.051,0.046,0.059,0.058,0.055,0.058,0.047,0.054,0.064,0.046,0.06,0.124
244,0.001,0.05,0.05,0.045,0.058,0.058,0.054,0.057,0.046,0.053,0.063,0.045,0.059,0.123
245,0.001,0.049,0.05,0.045,0.058,0.057,0.054,0.057,0.045,0.053,0.062,0.045,0.059,0.122
246,0.001,0.049,0.049,0.045,0.057,0.057,0.053,0.056,0.045,0.052,0.062,0.044,0.058,0.12
247,0.001,0.048,0.049,0.044,0.056,0.056,0.052,0.056,0.044,0.051,0.061,0.044,0.058,0.119
248,0.001,0.048,0.048,0.044,0.056,0.056,0.052,0.055,0.043,0.051,0.061,0.044,0.057,0.118
249,0.001,0.048,0.048,0.043,0.055,0.055,0.051,0.055,0.043,0.05,0.06,0.043,0.057,0.117
250,0.001,0.047,0.048,0.043,0.055,0.055,0.051,0.054,0.043,0.05,0.06,0.043,0.057,0.116
251,0.001,0.047,0.047,0.043,0.054,0.055,0.051,0.054,0.042,0.049,0.059,0.043,0.056,0.115
252,0.001,0.047,0.047,0.043,0.054,0.054,0.05,0.054,0.042,0.049,0.059,0.042,0.056,0.114
253,0.001,0.046,0.047,0.042,0.054,0.054,0.05,0.053,0.042,0.049,0.059,0.042,0.056,0.113
254,0.001,0.046,0.046,0.042,0.053,0.053,0.049,0.053,0.041,0.048,0.058,0.042,0.055,0.112
255,0.001,0.046,0.046,0.042,0.053,0.053,0.049,0.053,0.041,0.048,0.058,0.042,0.055,0.111
256,0.001,0.045,0.046,0.042,0.052,0.053,0.049,0.052,0.041,0.048,0.057,0.041,0.054,0.111
257,0.001,0.045,0.045,0.041,0.052,0.052,0.048,0.052,0.04,0.047,0.057,0.041,0.054,0.11
258,0.001,0.044,0.045,0.041,0.051,0.052,0.048,0.051,0.04,0.047,0.056,0.041,0.054,0.108
259,0.001,0.044,0.044,0.04,0.051,0.052,0.048,0.051,0.04,0.046,0.056,0.04,0.053,0.108
260,0.001,0.044,0.044,0.04,0.05,0.051,0.047,0.051,0.039,0.046,0.055,0.04,0.053,0.107
261,0.001,0.043,0.044,0.04,0.05,0.051,0.047,0.05,0.039,0.046,0.055,0.039,0.052,0.106
262,0.001,0.043,0.043,0.039,0.05,0.05,0.046,0.05,0.039,0.045,0.054,0.039,0.052,0.105
263,0.001,0.042,0.043,0.039,0.049,0.05,0.046,0.049,0.038,0.045,0.054,0.039,0.051,0.104
264,0.001,0.042,0.043,0.038,0.049,0.049,0.045,0.049,0.038,0.044,0.053,0.038,0.051,0.103
265,0.001,0.041,0.042,0.038,0.048,0.049,0.045,0.048,0.037,0.044,0.053,0.038,0.05,0.102
266,0.001,0.041,0.042,0.037,0.048,0.048,0.044,0.048,0.037,0.043,0.052,0.037,0.05,0.101
267,0.001,0.04,0.041,0.037,0.047,0.048,0.044,0.047,0.037,0.043,0.051,0.037,0.049,0.1
268,0.001,0.04,0.04,0.036,0.047,0.047,0.043,0.047,0.037,0.042,0.051,0.036,0.049,0.098
269,0.001,0.039,0.04,0.036,0.046,0.046,0.043,0.046,0.036,0.042,0.05,0.035,0.048,0.097
270,0.001,0.038,0.039,0.035,0.046,0.046,0.042,0.045,0.036,0.041,0.049,0.035,0.047,0.096
271,0.001,0.037,0.039,0.034,0.045,0.045,0.041,0.044,0.035,0.041,0.049,0.034,0.047,0.095
272,0.001,0.037,0.038,0.034,0.044,0.044,0.041,0.044,0.035,0.04,0.048,0.033,0.046,0.093
273,0.001,0.036,0.037,0.033,0.044,0.044,0.04,0.043,0.035,0.039,0.047,0.033,0.046,0.092
274,0.001,0.036,0.037,0.033,0.043,0.043,0.04,0.042,0.034,0.039,0.047,0.032,0.045,0.091
275,0.001,0.035,0.036,0.032,0.043,0.042,0.039,0.041,0.034,0.038,0.046,0.032,0.044,0.09
276,0.001,0.034,0.036,0.031,0.042,0.041,0.038,0.041,0.033,0.038,0.045,0.031,0.043,0.089
277,0.001,0.033,0.034,0.031,0.041,0.041,0.038,0.039,0.033,0.037,0.044,0.03,0.043,0.087
278,0.001,0.033,0.034,0.03,0.041,0.04,0.037,0.039,0.032,0.036,0.043,0.029,0.042,0.086
279,0,0.032,0.033,0.029,0.04,0.039,0.036,0.038,0.032,0.036,0.043,0.029,0.041,0.085
280,0.001,0.031,0.032,0.028,0.039,0.038,0.036,0.037,0.032,0.035,0.042,0.028,0.04,0.084
281,0.001,0.03,0.031,0.028,0.039,0.038,0.035,0.037,0.031,0.034,0.041,0.027,0.04,0.083
282,0,0.03,0.031,0.027,0.038,0.037,0.034,0.036,0.031,0.033,0.04,0.027,0.039,0.081
283,0,0.029,0.03,0.026,0.037,0.036,0.034,0.035,0.03,0.033,0.04,0.026,0.038,0.08
284,0,0.028,0.029,0.026,0.037,0.035,0.033,0.034,0.03,0.032,0.039,0.025,0.038,0.079
285,0.001,0.028,0.029,0.025,0.036,0.035,0.033,0.034,0.029,0.032,0.038,0.025,0.037,0.078
286,0.001,0.027,0.028,0.024,0.036,0.034,0.032,0.033,0.029,0.031,0.037,0.024,0.036,0.077
287,0.001,0.026,0.027,0.024,0.035,0.033,0.032,0.032,0.029,0.031,0.036,0.023,0.036,0.075
288,0,0.025,0.027,0.023,0.035,0.033,0.031,0.031,0.028,0.03,0.035,0.023,0.035,0.074
289,0,0.025,0.026,0.022,0.034,0.032,0.03,0.031,0.028,0.029,0.035,0.022,0.034,0.073
290,0,0.024,0.025,0.022,0.033,0.031,0.03,0.03,0.027,0.029,0.034,0.021,0.034,0.072
291,0,0.024,0.025,0.021,0.032,0.031,0.029,0.029,0.027,0.028,0.033,0.021,0.033,0.071
292,0,0.023,0.024,0.02,0.032,0.03,0.029,0.028,0.026,0.027,0.033,0.02,0.032,0.069
293,0.001,0.023,0.024,0.02,0.031,0.029,0.028,0.028,0.026,0.027,0.032,0.02,0.032,0.068
294,0,0.022,0.023,0.019,0.031,0.029,0.028,0.027,0.026,0.026,0.031,0.019,0.031,0.067
295,0.001,0.021,0.023,0.019,0.03,0.028,0.027,0.027,0.025,0.026,0.031,0.019,0.03,0.067
296,0,0.021,0.022,0.018,0.029,0.028,0.026,0.026,0.025,0.025,0.03,0.018,0.03,0.065
297,0.001,0.021,0.021,0.018,0.029,0.027,0.026,0.026,0.025,0.025,0.029,0.018,0.029,0.065
298,0.001,0.02,0.021,0.017,0.028,0.027,0.025,0.025,0.024,0.024,0.029,0.017,0.029,0.064
299,0,0.019,0.02,0.017,0.028,0.026,0.025,0.024,0.024,0.024,0.028,0.017,0.028,0.063
300,0,0.019,0.02,0.016,0.027,0.026,0.025,0.024,0.023,0.023,0.028,0.016,0.028,0.062
301,0.001,0.019,0.02,0.016,0.027,0.025,0.024,0.023,0.023,0.023,0.027,0.016,0.028,0.061
302,0.001,0.018,0.019,0.016,0.027,0.025,0.024,0.023,0.023,0.023,0.027,0.016,0.027,0.06
303,0,0.018,0.019,0.015,0.026,0.024,0.023,0.023,0.022,0.022,0.026,0.015,0.027,0.059
304,0,0.017,0.018,0.015,0.026,0.024,0.023,0.022,0.022,0.022,0.026,0.015,0.026,0.058
305,0.001,0.017,0.018,0.014,0.025,0.024,0.023,0.022,0.022,0.021,0.025,0.015,0.026,0.057
306,0,0.016,0.017,0.014,0.024,0.023,0.022,0.021,0.021,0.021,0.024,0.014,0.025,0.056
307,0,0.016,0.017,0.014,0.024,0.023,0.022,0.021,0.021,0.021,0.024,0.014,0.025,0.055
308,0,0.016,0.017,0.013,0.024,0.022,0.021,0.02,0.021,0.02,0.024,0.013,0.025,0.054
309,0,0.015,0.016,0.013,0.023,0.022,0.021,0.02,0.02,0.019,0.023,0.013,0.024,0.054
310,0,0.015,0.016,0.012,0.023,0.021,0.02,0.02,0.02,0.019,0.023,0.013,0.024,0.053
311,0,0.015,0.016,0.012,0.022,0.021,0.02,0.019,0.02,0.019,0.022,0.012,0.024,0.052
312,0,0.015,0.016,0.012,0.022,0.021,0.02,0.019,0.019,0.019,0.022,0.012,0.023,0.052
313,0,0.014,0.015,0.012,0.022,0.021,0.02,0.018,0.019,0.018,0.021,0.012,0.023,0.051
314,0,0.014,0.015,0.011,0.021,0.02,0.019,0.018,0.019,0.018,0.021,0.011,0.023,0.05
315,0,0.014,0.015,0.011,0.021,0.02,0.019,0.018,0.019,0.018,0.021,0.011,0.022,0.049
316,0,0.014,0.014,0.011,0.021,0.02,0.019,0.018,0.018,0.017,0.02,0.011,0.022,0.049
317,0,0.014,0.014,0.011,0.021,0.02,0.018,0.017,0.018,0.017,0.02,0.011,0.022,0.048
318,0,0.013,0.014,0.011,0.02,0.019,0.018,0.017,0.018,0.017,0.02,0.011,0.022,0.047
319,0,0.013,0.014,0.01,0.02,0.019,0.018,0.016,0.018,0.017,0.019,0.01,0.021,0.046
320,0,0.013,0.013,0.01,0.019,0.019,0.017,0.016,0.017,0.016,0.019,0.01,0.021,0.046
321,0,0.013,0.013,0.01,0.019,0.019,0.017,0.016,0.017,0.016,0.019,0.01,0.021,0.045
322,0,0.012,0.013,0.01,0.019,0.019,0.017,0.016,0.017,0.016,0.019,0.01,0.02,0.045
323,0.001,0.012,0.013,0.009,0.019,0.018,0.017,0.016,0.017,0.015,0.018,0.01,0.02,0.044
324,0,0.012,0.013,0.009,0.018,0.018,0.017,0.015,0.016,0.015,0.018,0.009,0.02,0.044
325,0.001,0.012,0.013,0.009,0.018,0.018,0.017,0.015,0.016,0.015,0.018,0.009,0.02,0.043
326,0,0.012,0.012,0.009,0.018,0.018,0.016,0.015,0.016,0.015,0.017,0.009,0.02,0.042
327,0.001,0.011,0.012,0.009,0.018,0.018,0.016,0.015,0.016,0.015,0.017,0.009,0.02,0.042
328,0,0.011,0.012,0.009,0.017,0.017,0.016,0.014,0.016,0.014,0.017,0.009,0.019,0.041
329,0,0.011,0.012,0.009,0.017,0.017,0.016,0.014,0.015,0.014,0.017,0.009,0.019,0.041
330,0,0.011,0.012,0.008,0.017,0.017,0.015,0.014,0.015,0.014,0.016,0.009,0.019,0.04
331,0,0.011,0.011,0.008,0.016,0.017,0.015,0.014,0.015,0.014,0.016,0.008,0.018,0.039
332,0,0.011,0.011,0.008,0.017,0.017,0.015,0.014,0.015,0.014,0.016,0.008,0.019,0.039
333,0.001,0.011,0.011,0.008,0.016,0.016,0.015,0.013,0.014,0.013,0.015,0.008,0.018,0.038
334,0,0.01,0.011,0.008,0.016,0.016,0.014,0.013,0.014,0.013,0.015,0.008,0.018,0.038
335,0,0.01,0.011,0.008,0.016,0.016,0.014,0.013,0.014,0.013,0.015,0.007,0.018,0.037
336,0,0.01,0.01,0.007,0.015,0.016,0.014,0.013,0.014,0.013,0.014,0.008,0.018,0.036
337,0,0.01,0.01,0.007,0.015,0.015,0.014,0.012,0.014,0.013,0.014,0.007,0.017,0.036
338,0,0.01,0.01,0.007,0.015,0.015,0.013,0.012,0.013,0.012,0.014,0.007,0.017,0.036
339,0.001,0.01,0.011,0.008,0.015,0.016,0.014,0.013,0.014,0.013,0.014,0.007,0.018,0.035
340,0.001,0.011,0.011,0.009,0.016,0.017,0.015,0.013,0.015,0.013,0.015,0.008,0.018,0.036
341,0,0.01,0.01,0.007,0.015,0.016,0.014,0.012,0.013,0.012,0.014,0.007,0.017,0.034
342,0,0.009,0.01,0.007,0.014,0.015,0.013,0.012,0.013,0.012,0.013,0.007,0.017,0.034
343,0,0.009,0.009,0.006,0.014,0.015,0.013,0.011,0.012,0.011,0.013,0.007,0.016,0.033
344,0,0.009,0.009,0.006,0.013,0.015,0.012,0.011,0.013,0.011,0.013,0.007,0.016,0.032
345,0,0.009,0.009,0.006,0.014,0.014,0.012,0.011,0.012,0.011,0.013,0.006,0.016,0.032
346,0,0.008,0.009,0.006,0.013,0.014,0.012,0.01,0.012,0.011,0.012,0.006,0.015,0.031
347,0,0.008,0.009,0.006,0.013,0.014,0.012,0.011,0.012,0.011,0.012,0.006,0.016,0.031
348,0,0.008,0.009,0.006,0.013,0.014,0.012,0.011,0.012,0.011,0.012,0.006,0.015,0.03
349,0,0.008,0.009,0.006,0.012,0.014,0.012,0.01,0.012,0.011,0.012,0.006,0.015,0.03
350,0.001,0.008,0.009,0.006,0.013,0.014,0.012,0.01,0.012,0.011,0.012,0.006,0.015,0.03
351,0,0.008,0.009,0.006,0.013,0.014,0.012,0.01,0.012,0.01,0.012,0.006,0.015,0.029
352,0.001,0.008,0.009,0.006,0.012,0.014,0.012,0.01,0.011,0.01,0.011,0.006,0.015,0.029
353,0,0.008,0.008,0.006,0.012,0.014,0.011,0.01,0.011,0.01,0.011,0.006,0.015,0.028
354,0,0.008,0.008,0.005,0.012,0.013,0.011,0.01,0.011,0.009,0.011,0.006,0.014,0.028
355,0,0.008,0.008,0.005,0.012,0.013,0.011,0.01,0.011,0.01,0.011,0.005,0.015,0.027
356,0,0.007,0.008,0.005,0.011,0.013,0.01,0.009,0.01,0.009,0.01,0.005,0.014,0.027
357,0,0.007,0.007,0.005,0.011,0.013,0.01,0.009,0.01,0.009,0.01,0.005,0.014,0.026
358,0,0.007,0.007,0.005,0.011,0.013,0.01,0.009,0.01,0.009,0.01,0.005,0.014,0.025
359,0,0.007,0.007,0.005,0.011,0.013,0.01,0.009,0.01,0.009,0.01,0.005,0.014,0.026
360,0,0.007,0.007,0.005,0.011,0.013,0.01,0.009,0.01,0.009,0.01,0.005,0.014,0.025
361,0,0.007,0.007,0.005,0.01,0.012,0.01,0.009,0.01,0.008,0.01,0.005,0.014,0.025
362,0,0.007,0.007,0.004,0.01,0.012,0.009,0.008,0.01,0.008,0.01,0.004,0.013,0.024
363,0,0.007,0.007,0.005,0.01,0.012,0.01,0.008,0.009,0.008,0.009,0.005,0.014,0.024
364,0,0.007,0.007,0.004,0.01,0.012,0.009,0.008,0.009,0.008,0.009,0.005,0.013,0.023
365,0,0.007,0.007,0.004,0.01,0.012,0.009,0.008,0.009,0.008,0.009,0.004,0.013,0.023
366,0,0.007,0.007,0.004,0.01,0.012,0.009,0.008,0.009,0.008,0.009,0.004,0.013,0.023
367,0,0.007,0.007,0.004,0.01,0.012,0.009,0.008,0.009,0.008,0.009,0.004,0.013,0.022
368,0,0.006,0.006,0.004,0.009,0.012,0.009,0.008,0.009,0.008,0.009,0.004,0.013,0.022
369,0,0.007,0.007,0.004,0.009,0.012,0.009,0.008,0.009,0.008,0.009,0.004,0.013,0.021
370,0,0.006,0.006,0.004,0.009,0.011,0.009,0.008,0.009,0.007,0.008,0.004,0.013,0.021
371,0,0.006,0.006,0.004,0.009,0.011,0.009,0.007,0.008,0.007,0.008,0.004,0.012,0.021
372,0,0.006,0.006,0.004,0.009,0.011,0.008,0.008,0.008,0.007,0.008,0.004,0.013,0.02
373,0,0.006,0.006,0.004,0.009,0.011,0.008,0.007,0.008,0.007,0.008,0.004,0.012,0.02
374,0,0.006,0.006,0.004,0.009,0.011,0.008,0.007,0.008,0.007,0.008,0.004,0.012,0.02
375,0,0.006,0.006,0.004,0.008,0.011,0.008,0.007,0.008,0.007,0.008,0.004,0.012,0.02
376,0,0.006,0.006,0.004,0.008,0.011,0.008,0.007,0.008,0.007,0.008,0.004,0.012,0.019
377,0,0.006,0.006,0.004,0.008,0.011,0.008,0.007,0.008,0.007,0.007,0.004,0.012,0.019
378,0,0.006,0.006,0.004,0.008,0.011,0.008,0.007,0.007,0.007,0.007,0.004,0.012,0.019
379,0,0.005,0.006,0.003,0.008,0.011,0.008,0.007,0.007,0.007,0.007,0.003,0.012,0.018
380,0,0.005,0.006,0.003,0.008,0.011,0.008,0.007,0.007,0.006,0.007,0.003,0.012,0.018
381,0,0.005,0.006,0.003,0.008,0.011,0.008,0.007,0.007,0.006,0.007,0.003,0.012,0.018
382,0,0.005,0.005,0.003,0.008,0.01,0.008,0.007,0.007,0.006,0.007,0.003,0.012,0.017
383,0,0.005,0.005,0.003,0.008,0.01,0.008,0.007,0.007,0.006,0.007,0.003,0.012,0.017
384,0,0.005,0.005,0.003,0.008,0.01,0.008,0.007,0.007,0.006,0.007,0.003,0.012,0.017
385,0,0.005,0.005,0.003,0.007,0.01,0.007,0.006,0.007,0.006,0.007,0.003,0.011,0.017
386,0,0.005,0.005,0.003,0.007,0.01,0.007,0.006,0.007,0.006,0.007,0.003,0.011,0.016
387,0,0.005,0.005,0.003,0.007,0.01,0.007,0.006,0.007,0.006,0.007,0.003,0.011,0.016
388,0,0.005,0.005,0.003,0.007,0.01,0.007,0.006,0.007,0.006,0.006,0.003,0.011,0.016
389,0,0.005,0.005,0.003,0.007,0.01,0.007,0.006,0.006,0.006,0.006,0.003,0.011,0.016
390,0,0.005,0.005,0.003,0.007,0.01,0.007,0.006,0.006,0.006,0.006,0.003,0.011,0.015
391,0,0.005,0.005,0.003,0.007,0.01,0.007,0.006,0.006,0.006,0.006,0.003,0.011,0.015
392,0,0.005,0.005,0.003,0.007,0.01,0.007,0.006,0.006,0.005,0.006,0.003,0.011,0.015
393,0,0.005,0.004,0.002,0.006,0.01,0.006,0.006,0.006,0.005,0.006,0.002,0.011,0.014
394,0,0.004,0.004,0.003,0.006,0.009,0.006,0.006,0.006,0.005,0.006,0.003,0.011,0.014
395,0,0.005,0.005,0.003,0.007,0.01,0.006,0.006,0.006,0.005,0.006,0.003,0.011,0.014
396,0,0.004,0.005,0.002,0.006,0.009,0.006,0.006,0.006,0.005,0.006,0.002,0.011,0.014
397,0,0.004,0.004,0.002,0.006,0.009,0.006,0.005,0.006,0.005,0.005,0.002,0.01,0.014
398,0,0.004,0.004,0.002,0.006,0.009,0.006,0.005,0.006,0.005,0.005,0.002,0.01,0.013
399,0,0.004,0.004,0.002,0.006,0.009,0.006,0.005,0.006,0.005,0.005,0.002,0.01,0.013
400,0,0.004,0.004,0.002,0.006,0.009,0.006,0.005,0.005,0.005,0.005,0.002,0.01,0.013
401,0,0.004,0.004,0.002,0.006,0.009,0.006,0.005,0.005,0.005,0.005,0.002,0.01,0.013
402,0,0.004,0.004,0.002,0.006,0.009,0.006,0.005,0.005,0.005,0.005,0.002,0.01,0.013
403,0,0.004,0.004,0.002,0.006,0.009,0.006,0.005,0.005,0.005,0.005,0.002,0.01,0.013
404,0,0.004,0.004,0.002,0.006,0.009,0.006,0.005,0.005,0.005,0.005,0.002,0.01,0.012
405,0,0.004,0.004,0.002,0.006,0.009,0.006,0.005,0.005,0.004,0.005,0.002,0.01,0.012
406,0,0.004,0.004,0.002,0.006,0.009,0.006,0.005,0.005,0.004,0.005,0.002,0.01,0.012
407,0,0.004,0.004,0.002,0.006,0.009,0.006,0.005,0.005,0.004,0.005,0.002,0.01,0.012
408,0,0.004,0.004,0.002,0.006,0.009,0.006,0.005,0.005,0.004,0.005,0.002,0.01,0.012
409,0,0.004,0.004,0.002,0.005,0.009,0.005,0.005,0.005,0.004,0.005,0.002,0.01,0.011
410,0,0.004,0.004,0.002,0.005,0.009,0.005,0.005,0.005,0.004,0.004,0.002,0.01,0.011
411,0,0.004,0.004,0.002,0.005,0.009,0.005,0.005,0.005,0.004,0.004,0.002,0.01,0.011
412,0,0.004,0.004,0.002,0.005,0.009,0.005,0.005,0.005,0.004,0.004,0.002,0.01,0.011
413,0,0.004,0.004,0.002,0.005,0.009,0.005,0.005,0.005,0.004,0.004,0.002,0.01,0.011
414,0,0.004,0.004,0.002,0.005,0.008,0.005,0.005,0.005,0.004,0.004,0.002,0.01,0.011
415,0,0.004,0.004,0.002,0.005,0.008,0.005,0.005,0.005,0.004,0.004,0.002,0.01,0.011
416,0,0.004,0.004,0.002,0.005,0.009,0.005,0.005,0.005,0.004,0.004,0.002,0.01,0.01
417,0,0.004,0.004,0.002,0.005,0.008,0.005,0.004,0.005,0.004,0.004,0.002,0.009,0.01
418,0,0.004,0.003,0.002,0.005,0.008,0.005,0.004,0.004,0.004,0.004,0.002,0.009,0.01
419,0,0.003,0.003,0.002,0.005,0.008,0.005,0.004,0.004,0.004,0.004,0.002,0.009,0.01
420,0,0.003,0.003,0.002,0.005,0.008,0.005,0.004,0.004,0.004,0.004,0.002,0.009,0.01
421,0,0.003,0.003,0.002,0.005,0.008,0.005,0.004,0.004,0.004,0.004,0.002,0.009,0.01
422,0,0.003,0.003,0.002,0.005,0.008,0.005,0.004,0.004,0.004,0.004,0.001,0.009,0.009
423,0,0.003,0.003,0.002,0.005,0.008,0.005,0.004,0.004,0.004,0.004,0.001,0.009,0.009
424,0,0.003,0.003,0.002,0.005,0.008,0.005,0.004,0.004,0.004,0.004,0.002,0.009,0.009
425,0,0.003,0.003,0.001,0.005,0.008,0.005,0.004,0.004,0.004,0.004,0.002,0.009,0.009
426,0,0.003,0.003,0.001,0.005,0.008,0.005,0.004,0.004,0.003,0.004,0.001,0.009,0.009
427,0,0.003,0.003,0.002,0.005,0.008,0.005,0.004,0.004,0.004,0.004,0.001,0.009,0.009
428,0,0.003,0.003,0.001,0.005,0.008,0.005,0.004,0.004,0.004,0.004,0.001,0.009,0.009
429,0,0.003,0.003,0.001,0.004,0.008,0.005,0.004,0.004,0.003,0.003,0.001,0.009,0.008
430,0,0.003,0.003,0.001,0.004,0.008,0.005,0.004,0.004,0.003,0.003,0.001,0.009,0.008
431,0,0.003,0.003,0.001,0.004,0.008,0.005,0.004,0.004,0.003,0.003,0.001,0.009,0.008
432,0,0.003,0.003,0.001,0.004,0.008,0.004,0.004,0.004,0.003,0.003,0.001,0.009,0.008
433,0,0.003,0.003,0.001,0.004,0.008,0.004,0.004,0.004,0.003,0.003,0.001,0.009,0.008
434,0,0.003,0.003,0.001,0.004,0.008,0.004,0.004,0.004,0.003,0.003,0.001,0.009,0.008
435,0,0.003,0.003,0.001,0.004,0.008,0.004,0.004,0.004,0.003,0.003,0.001,0.009,0.008
436,0,0.003,0.003,0.001,0.004,0.008,0.004,0.004,0.003,0.003,0.003,0.001,0.009,0.008
437,0,0.003,0.003,0.001,0.004,0.007,0.004,0.003,0.003,0.003,0.003,0.001,0.009,0.008
438,0,0.003,0.003,0.001,0.004,0.007,0.004,0.003,0.003,0.003,0.003,0.001,0.009,0.008
439,0,0.003,0.003,0.001,0.004,0.007,0.004,0.003,0.003,0.003,0.003,0.001,0.009,0.008
440,0,0.003,0.003,0.001,0.004,0.007,0.004,0.003,0.003,0.003,0.003,0.001,0.009,0.007
441,0,0.003,0.003,0.001,0.004,0.007,0.004,0.003,0.003,0.003,0.003,0.001,0.008,0.007
442,0,0.003,0.003,0.001,0.004,0.007,0.004,0.003,0.003,0.003,0.003,0.001,0.008,0.007
443,0,0.003,0.003,0.001,0.004,0.007,0.004,0.003,0.003,0.003,0.003,0.001,0.008,0.007
444,0,0.003,0.003,0.001,0.004,0.007,0.004,0.003,0.003,0.003,0.003,0.001,0.008,0.007
445,0,0.003,0.003,0.001,0.004,0.007,0.004,0.003,0.003,0.003,0.003,0.001,0.008,0.007
446,0,0.003,0.003,0.001,0.004,0.007,0.004,0.003,0.003,0.003,0.003,0.001,0.008,0.007
447,0,0.003,0.003,0.001,0.004,0.007,0.004,0.003,0.003,0.003,0.003,0.001,0.008,0.007
448,0,0.003,0.003,0.001,0.004,0.007,0.004,0.003,0.003,0.003,0.003,0.001,0.008,0.007
449,0,0.003,0.003,0.001,0.004,0.007,0.004,0.003,0.003,0.003,0.003,0.001,0.008,0.007
450,0,0.003,0.003,0.001,0.004,0.007,0.004,0.003,0.003,0.003,0.003,0.001,0.008,0.007
451,0,0.003,0.003,0.001,0.004,0.007,0.004,0.003,0.003,0.003,0.003,0.001,0.008,0.006
452,0,0.003,0.003,0.001,0.004,0.007,0.004,0.003,0.003,0.003,0.003,0.001,0.008,0.006
453,0,0.003,0.002,0.001,0.003,0.007,0.004,0.003,0.003,0.002,0.003,0.001,0.008,0.006
454,0,0.003,0.002,0.001,0.003,0.007,0.004,0.003,0.003,0.003,0.003,0.001,0.008,0.006
455,0,0.003,0.003,0.001,0.003,0.007,0.004,0.003,0.003,0.003,0.003,0.001,0.008,0.006
456,0,0.003,0.003,0.001,0.003,0.007,0.004,0.003,0.003,0.003,0.002,0.001,0.008,0.006
457,0,0.003,0.003,0.001,0.003,0.007,0.004,0.003,0.003,0.003,0.002,0.001,0.008,0.006
458,0,0.003,0.002,0.001,0.003,0.007,0.004,0.003,0.003,0.003,0.002,0.001,0.008,0.006
459,0,0.003,0.002,0.001,0.003,0.007,0.004,0.003,0.003,0.003,0.002,0.001,0.008,0.006
460,0,0.002,0.002,0.001,0.003,0.007,0.004,0.003,0.003,0.003,0.002,0.001,0.008,0.006
461,0,0.003,0.002,0.001,0.003,0.007,0.004,0.003,0.003,0.002,0.002,0.001,0.008,0.006
462,0,0.003,0.002,0.001,0.003,0.007,0.004,0.003,0.003,0.002,0.002,0.001,0.008,0.006
463,0,0.003,0.002,0.001,0.003,0.007,0.004,0.003,0.003,0.002,0.002,0.001,0.008,0.006
464,0,0.002,0.002,0.001,0.003,0.007,0.003,0.003,0.003,0.002,0.002,0.001,0.008,0.005
465,0,0.003,0.002,0.001,0.003,0.007,0.003,0.003,0.003,0.002,0.002,0.001,0.008,0.005
466,0,0.003,0.002,0.001,0.003,0.007,0.003,0.003,0.003,0.002,0.002,0.001,0.008,0.005
467,0,0.002,0.002,0.001,0.003,0.007,0.004,0.003,0.003,0.002,0.002,0.001,0.008,0.005
468,0,0.002,0.002,0.001,0.003,0.007,0.003,0.003,0.003,0.002,0.002,0.001,0.008,0.005
469,0,0.002,0.002,0.001,0.003,0.006,0.003,0.003,0.003,0.002,0.002,0.001,0.008,0.005
470,0,0.002,0.002,0.001,0.003,0.007,0.003,0.003,0.003,0.002,0.002,0.001,0.007,0.005
471,0,0.002,0.002,0.001,0.003,0.006,0.003,0.003,0.003,0.002,0.002,0.001,0.008,0.005
472,0,0.002,0.002,0.001,0.003,0.006,0.003,0.003,0.003,0.002,0.002,0.001,0.007,0.005
473,0,0.002,0.002,0.001,0.003,0.007,0.003,0.003,0.002,0.002,0.002,0.001,0.007,0.005
474,0,0.002,0.002,0.001,0.003,0.006,0.003,0.003,0.002,0.002,0.002,0.001,0.007,0.005
475,0,0.002,0.002,0.001,0.003,0.006,0.003,0.003,0.002,0.002,0.002,0.001,0.007,0.005
476,0,0.002,0.002,0.001,0.003,0.006,0.003,0.003,0.002,0.002,0.002,0.001,0.007,0.005
477,0,0.002,0.002,0.001,0.003,0.006,0.003,0.003,0.002,0.002,0.002,0.001,0.007,0.005
478,0,0.002,0.002,0.001,0.003,0.006,0.003,0.003,0.002,0.002,0.002,0.001,0.007,0.005
479,0,0.002,0.002,0.001,0.003,0.006,0.003,0.003,0.002,0.002,0.002,0.001,0.007,0.005
480,0,0.002,0.002,0.001,0.003,0.006,0.003,0.003,0.002,0.002,0.002,0.001,0.007,0.005
481,0,0.002,0.002,0.001,0.003,0.006,0.003,0.003,0.002,0.002,0.002,0.001,0.007,0.005
482,0,0.002,0.002,0.001,0.003,0.006,0.003,0.003,0.002,0.002,0.002,0.001,0.007,0.005
483,0,0.002,0.002,0.001,0.003,0.006,0.003,0.003,0.002,0.002,0.002,0,0.007,0.005
484,0,0.002,0.002,0.001,0.003,0.006,0.003,0.002,0.002,0.002,0.002,0,0.007,0.004
485,0,0.002,0.002,0.001,0.003,0.006,0.003,0.002,0.002,0.002,0.002,0.001,0.007,0.004
486,0,0.002,0.002,0.001,0.003,0.006,0.003,0.002,0.002,0.002,0.002,0.001,0.007,0.004
487,0,0.002,0.002,0.001,0.003,0.006,0.003,0.002,0.002,0.002,0.002,0,0.007,0.004
488,0,0.002,0.002,0,0.003,0.006,0.003,0.002,0.002,0.002,0.002,0,0.007,0.004
489,0,0.002,0.002,0,0.002,0.006,0.003,0.002,0.002,0.002,0.002,0,0.007,0.004
490,0,0.002,0.002,0,0.003,0.006,0.003,0.002,0.002,0.002,0.002,0,0.007,0.004
491,0,0.002,0.002,0,0.003,0.006,0.003,0.002,0.002,0.002,0.002,0,0.007,0.004
492,0,0.002,0.002,0.001,0.003,0.006,0.003,0.002,0.002,0.002,0.002,0.001,0.007,0.004
493,0,0.002,0.002,0,0.003,0.006,0.003,0.002,0.002,0.002,0.002,0,0.007,0.004
494,0,0.002,0.002,0,0.003,0.006,0.003,0.002,0.002,0.002,0.002,0,0.007,0.004
495,0,0.002,0.002,0,0.003,0.006,0.003,0.002,0.002,0.002,0.002,0,0.007,0.004
496,0,0.002,0.002,0,0.003,0.006,0.003,0.002,0.002,0.002,0.002,0,0.007,0.004
497,0,0.002,0.002,0.001,0.003,0.006,0.003,0.002,0.002,0.002,0.002,0,0.007,0.004
498,0,0.002,0.002,0,0.003,0.006,0.003,0.002,0.002,0.002,0.002,0.001,0.007,0.004
499,0,0.002,0.002,0.001,0.003,0.006,0.003,0.002,0.002,0.002,0.002,0,0.007,0.004
500,0,0.002,0.002,0.001,0.003,0.006,0.003,0.002,0.002,0.002,0.002,0,0.007,0.004
501,0,0.002,0.002,0.001,0.003,0.006,0.003,0.002,0.002,0.002,0.002,0,0.007,0.004
502,0,0.002,0.002,0,0.002,0.006,0.003,0.002,0.002,0.002,0.002,0,0.007,0.004
503,0,0.002,0.002,0,0.002,0.006,0.003,0.002,0.002,0.002,0.002,0,0.007,0.004
504,0,0.002,0.002,0.001,0.002,0.006,0.003,0.002,0.002,0.002,0.002,0,0.007,0.004
505,0,0.002,0.002,0,0.002,0.006,0.003,0.002,0.002,0.002,0.002,0,0.007,0.004
506,0,0.002,0.002,0,0.002,0.006,0.003,0.002,0.002,0.002,0.002,0,0.007,0.004
507,0,0.002,0.002,0,0.002,0.006,0.003,0.002,0.002,0.002,0.001,0,0.007,0.004
508,0,0.002,0.002,0,0.002,0.006,0.003,0.002,0.002,0.002,0.002,0,0.007,0.004
509,0,0.002,0.002,0,0.002,0.006,0.003,0.002,0.002,0.002,0.002,0,0.007,0.004
510,0,0.002,0.002,0,0.002,0.006,0.003,0.002,0.002,0.002,0.001,0,0.007,0.003
511,0,0.002,0.002,0,0.002,0.006,0.003,0.002,0.002,0.002,0.001,0,0.007,0.004
512,0,0.002,0.002,0,0.002,0.006,0.003,0.002,0.002,0.002,0.001,0,0.007,0.004
513,0,0.002,0.002,0,0.002,0.006,0.003,0.002,0.002,0.002,0.002,0,0.007,0.003
514,0,0.002,0.002,0,0.002,0.005,0.003,0.002,0.002,0.002,0.001,0,0.007,0.003
515,0,0.002,0.002,0,0.002,0.005,0.003,0.002,0.002,0.002,0.001,0,0.007,0.003
516,0,0.002,0.002,0,0.002,0.005,0.003,0.002,0.002,0.002,0.001,0,0.006,0.003
517,0,0.002,0.002,0,0.002,0.005,0.003,0.002,0.002,0.002,0.001,0,0.006,0.003
518,0,0.002,0.002,0,0.002,0.005,0.003,0.002,0.002,0.002,0.001,0,0.006,0.003
519,0,0.002,0.002,0,0.002,0.005,0.003,0.002,0.002,0.002,0.001,0,0.006,0.003
520,0,0.002,0.002,0,0.002,0.005,0.003,0.002,0.002,0.002,0.001,0,0.006,0.003
521,0,0.002,0.002,0,0.002,0.005,0.003,0.002,0.002,0.001,0.001,0,0.006,0.003
522,0,0.002,0.002,0,0.002,0.005,0.002,0.002,0.002,0.001,0.001,0,0.006,0.003
523,0,0.002,0.002,0,0.002,0.005,0.002,0.002,0.002,0.001,0.001,0,0.006,0.003
524,0,0.002,0.002,0,0.002,0.005,0.002,0.002,0.002,0.001,0.001,0,0.006,0.003
525,0,0.002,0.002,0,0.002,0.005,0.002,0.002,0.002,0.001,0.001,0,0.006,0.003
526,0,0.002,0.002,0,0.002,0.005,0.003,0.002,0.002,0.002,0.001,0,0.006,0.003
527,0,0.002,0.002,0,0.002,0.005,0.003,0.002,0.002,0.001,0.001,0,0.006,0.003
528,0,0.002,0.002,0,0.002,0.005,0.002,0.002,0.002,0.001,0.001,0,0.006,0.003
529,0,0.002,0.002,0,0.002,0.005,0.002,0.002,0.002,0.001,0.001,0,0.006,0.003
530,0,0.002,0.002,0,0.002,0.005,0.002,0.002,0.002,0.001,0.001,0,0.006,0.003
531,0,0.002,0.002,0,0.002,0.005,0.002,0.002,0.002,0.001,0.001,0,0.006,0.003
532,0,0.002,0.002,0,0.002,0.005,0.002,0.002,0.002,0.001,0.001,0,0.006,0.003
533,0,0.002,0.002,0,0.002,0.005,0.002,0.002,0.002,0.001,0.001,0,0.006,0.003
534,0,0.002,0.002,0,0.002,0.005,0.002,0.002,0.002,0.001,0.001,0,0.006,0.003
535,0,0.002,0.002,0.001,0.002,0.005,0.003,0.002,0.002,0.002,0.001,0,0.006,0.003
536,0.001,0.003,0.003,0.001,0.003,0.006,0.003,0.003,0.003,0.002,0.002,0.001,0.007,0.004
537,0,0.002,0.002,0.001,0.002,0.005,0.003,0.002,0.002,0.001,0.001,0,0.006,0.003
538,0,0.002,0.002,0,0.002,0.005,0.002,0.002,0.002,0.001,0.001,0,0.006,0.003
539,0,0.002,0.002,0,0.002,0.005,0.002,0.002,0.002,0.001,0.001,0,0.006,0.003
540,0,0.002,0.002,0,0.002,0.005,0.002,0.002,0.002,0.001,0.001,0,0.006,0.003
541,0,0.002,0.002,0,0.002,0.005,0.002,0.002,0.001,0.001,0.001,0,0.006,0.003
542,0,0.002,0.002,0,0.002,0.005,0.002,0.002,0.001,0.001,0.001,0,0.006,0.003
543,0,0.002,0.002,0,0.002,0.005,0.002,0.002,0.001,0.001,0.001,0,0.006,0.003
544,0,0.002,0.002,0,0.002,0.005,0.002,0.002,0.002,0.001,0.001,0,0.006,0.003
545,0,0.002,0.002,0,0.002,0.005,0.002,0.002,0.002,0.001,0.001,0,0.006,0.003
546,0,0.002,0.002,0,0.002,0.005,0.002,0.002,0.001,0.001,0.001,0,0.006,0.003
547,0,0.002,0.002,0,0.002,0.005,0.002,0.002,0.001,0.001,0.001,0,0.006,0.003
548,0,0.002,0.002,0,0.002,0.005,0.002,0.002,0.001,0.001,0.001,0,0.006,0.003
549,0,0.002,0.002,0,0.002,0.005,0.002,0.002,0.001,0.001,0.001,0,0.006,0.003
550,0,0.002,0.002,0,0.002,0.005,0.002,0.002,0.001,0.001,0.001,0,0.006,0.003
551,0,0.002,0.002,0,0.002,0.005,0.002,0.002,0.001,0.001,0.001,0,0.006,0.003
552,0,0.002,0.002,0,0.002,0.005,0.002,0.002,0.001,0.001,0.001,0,0.006,0.003
553,0,0.002,0.002,0,0.002,0.005,0.002,0.002,0.001,0.001,0.001,0,0.006,0.003
554,0,0.002,0.002,0,0.002,0.005,0.002,0.002,0.001,0.001,0.001,0,0.006,0.003
555,0,0.002,0.002,0,0.002,0.005,0.002,0.002,0.001,0.001,0.001,0,0.006,0.003
556,0,0.002,0.002,0,0.002,0.005,0.002,0.002,0.001,0.001,0.001,0,0.006,0.003
557,0,0.002,0.002,0,0.002,0.005,0.002,0.002,0.001,0.001,0.001,0,0.006,0.002
558,0,0.002,0.002,0,0.002,0.005,0.002,0.002,0.001,0.001,0.001,0,0.006,0.002
559,0,0.002,0.002,0,0.002,0.005,0.002,0.002,0.001,0.001,0.001,0,0.006,0.002
560,0,0.001,0.001,0,0.002,0.005,0.002,0.002,0.001,0.001,0.001,0,0.006,0.002
561,0,0.002,0.002,0,0.002,0.005,0.002,0.002,0.001,0.001,0.001,0,0.006,0.002
562,0,0.002,0.002,0,0.002,0.005,0.002,0.002,0.001,0.001,0.001,0,0.006,0.002
563,0,0.002,0.002,0,0.002,0.005,0.002,0.002,0.001,0.001,0.001,0,0.006,0.002
564,0,0.002,0.002,0,0.002,0.005,0.002,0.002,0.001,0.001,0.001,0,0.006,0.002
565,0,0.002,0.002,0,0.002,0.005,0.002,0.002,0.001,0.001,0.001,0,0.006,0.003
566,0,0.002,0.002,0,0.002,0.005,0.002,0.002,0.001,0.001,0.001,0,0.006,0.003
567,0,0.002,0.002,0,0.002,0.005,0.002,0.002,0.001,0.001,0.001,0,0.006,0.002
568,0,0.002,0.002,0,0.002,0.005,0.002,0.002,0.001,0.001,0.001,0,0.006,0.002
569,0,0.002,0.002,0,0.002,0.005,0.002,0.002,0.001,0.001,0.001,0,0.006,0.002
570,0,0.002,0.002,0,0.002,0.005,0.002,0.002,0.001,0.001,0.001,0,0.006,0.002
571,0,0.002,0.002,0,0.002,0.005,0.002,0.002,0.001,0.001,0.001,0,0.006,0.002
572,0,0.001,0.001,0,0.002,0.005,0.002,0.002,0.001,0.001,0.001,0,0.006,0.002
573,0,0.002,0.002,0,0.002,0.005,0.002,0.002,0.001,0.001,0.001,0,0.006,0.002
574,0,0.002,0.001,0,0.002,0.005,0.002,0.002,0.001,0.001,0.001,0,0.006,0.002
575,0,0.001,0.001,0,0.002,0.004,0.002,0.002,0.001,0.001,0.001,0,0.006,0.002
576,0,0.001,0.001,0,0.002,0.004,0.002,0.002,0.001,0.001,0.001,0,0.006,0.002
577,0,0.002,0.002,0,0.002,0.004,0.002,0.002,0.001,0.001,0.001,0,0.006,0.002
578,0,0.002,0.002,0,0.002,0.005,0.002,0.002,0.001,0.001,0.001,0,0.006,0.002
579,0,0.002,0.002,0,0.002,0.005,0.002,0.002,0.001,0.001,0.001,0,0.006,0.002
580,0,0.001,0.001,0,0.002,0.004,0.002,0.002,0.001,0.001,0.001,0,0.006,0.002
581,0,0.001,0.001,0,0.002,0.004,0.002,0.002,0.001,0.001,0.001,0,0.005,0.002
582,0,0.001,0.001,0,0.002,0.004,0.002,0.002,0.001,0.001,0.001,0,0.005,0.002
583,0,0.001,0.001,0,0.002,0.004,0.002,0.002,0.001,0.001,0.001,0,0.005,0.002
584,0,0.001,0.001,0,0.002,0.004,0.002,0.002,0.001,0.001,0.001,0,0.006,0.002
585,0,0.001,0.001,0,0.002,0.004,0.002,0.002,0.001,0.001,0.001,0,0.006,0.002
586,0,0.002,0.002,0,0.002,0.004,0.002,0.002,0.001,0.001,0.001,0,0.006,0.002
587,0,0.002,0.002,0,0.002,0.004,0.002,0.002,0.001,0.001,0.001,0,0.006,0.002
588,0,0.002,0.001,0,0.002,0.004,0.002,0.002,0.001,0.001,0.001,0,0.005,0.002
589,0,0.002,0.002,0,0.002,0.004,0.002,0.002,0.001,0.001,0.001,0,0.005,0.002
590,0,0.001,0.001,0,0.002,0.004,0.002,0.002,0.001,0.001,0.001,0,0.005,0.002
591,0,0.001,0.001,0,0.001,0.004,0.002,0.002,0.001,0.001,0.001,0,0.005,0.002
592,0,0.001,0.001,0,0.001,0.004,0.002,0.002,0.001,0.001,0.001,0,0.005,0.002
593,0,0.001,0.001,0,0.002,0.004,0.002,0.002,0.001,0.001,0.001,0,0.005,0.002
594,0,0.001,0.001,0,0.002,0.004,0.002,0.002,0.001,0.001,0.001,0,0.005,0.002
595,0,0.001,0.001,0,0.002,0.004,0.002,0.002,0.001,0.001,0.001,0,0.005,0.002
596,0,0.001,0.001,0,0.002,0.004,0.002,0.002,0.001,0.001,0.001,0,0.005,0.002
597,0,0.001,0.001,0,0.002,0.004,0.002,0.002,0.001,0.001,0.001,0,0.005,0.002
598,0,0.001,0.001,0,0.001,0.004,0.002,0.002,0.001,0.001,0.001,0,0.005,0.002
599,0,0.001,0.001,0,0.002,0.004,0.002,0.002,0.001,0.001,0.001,0,0.005,0.002
600,0,0.001,0.002,0,0.002,0.004,0.002,0.002,0.001,0.001,0.001,0,0.005,0.002
601,0,0.001,0.001,0,0.001,0.004,0.002,0.002,0.001,0.001,0.001,0,0.005,0.002
602,0,0.001,0.001,0,0.001,0.004,0.002,0.002,0.001,0.001,0.001,0,0.005,0.002
603,0,0.001,0.001,0,0.001,0.004,0.002,0.002,0.001,0.001,0.001,0,0.005,0.002
604,0,0.001,0.001,0,0.001,0.004,0.002,0.001,0.001,0.001,0.001,0,0.005,0.002
605,0,0.001,0.001,0,0.001,0.004,0.002,0.001,0.001,0.001,0.001,0,0.005,0.002
606,0,0.001,0.001,0,0.001,0.004,0.002,0.001,0.001,0.001,0.001,0,0.005,0.002
607,0,0.001,0.001,0,0.001,0.004,0.002,0.001,0.001,0.001,0.001,0,0.005,0.002
608,0,0.001,0.001,0,0.001,0.004,0.002,0.001,0.001,0.001,0.001,0,0.005,0.002
609,0,0.001,0.001,0,0.001,0.004,0.002,0.001,0.001,0.001,0.001,0,0.005,0.002
610,0,0.001,0.001,0,0.001,0.004,0.002,0.001,0.001,0.001,0.001,0,0.005,0.002
611,0,0.001,0.001,0,0.001,0.004,0.002,0.001,0.001,0.001,0.001,0,0.005,0.002
612,0,0.001,0.001,0,0.001,0.004,0.002,0.001,0.001,0.001,0.001,0,0.005,0.002
613,0,0.001,0.001,0,0.001,0.004,0.002,0.001,0.001,0.001,0.001,0,0.005,0.002
614,0,0.001,0.001,0,0.001,0.004,0.002,0.001,0.001,0.001,0.001,0,0.005,0.002
615,0,0.001,0.001,0,0.001,0.004,0.002,0.001,0.001,0.001,0.001,0,0.005,0.002
616,0,0.001,0.001,0,0.001,0.004,0.002,0.001,0.001,0.001,0.001,0,0.005,0.002
617,0,0.001,0.001,0,0.002,0.004,0.002,0.001,0.001,0.001,0.001,0,0.005,0.002
618,0,0.001,0.001,0,0.001,0.004,0.002,0.001,0.001,0.001,0.001,0,0.005,0.002
619,0,0.001,0.001,0,0.001,0.004,0.002,0.001,0.001,0.001,0.001,0,0.005,0.002
620,0,0.001,0.001,0,0.001,0.004,0.002,0.001,0.001,0.001,0.001,0,0.005,0.002
621,0,0.001,0.001,0,0.001,0.004,0.002,0.001,0.001,0.001,0.001,0,0.005,0.002
622,0,0.001,0.001,0,0.001,0.004,0.002,0.001,0.001,0.001,0.001,0,0.005,0.002
623,0,0.001,0.001,0,0.001,0.004,0.002,0.001,0.001,0.001,0.001,0,0.005,0.002
624,0,0.001,0.001,0,0.001,0.004,0.002,0.001,0.001,0.001,0.001,0,0.005,0.002
625,0,0.001,0.001,0,0.001,0.004,0.002,0.001,0.001,0.001,0.001,0,0.005,0.002
626,0,0.001,0.001,0,0.001,0.004,0.002,0.001,0.001,0.001,0.001,0,0.005,0.002
627,0,0.001,0.001,0,0.001,0.004,0.002,0.001,0.001,0.001,0.001,0,0.005,0.002
628,0,0.001,0.001,0,0.001,0.004,0.002,0.001,0.001,0.001,0.001,0,0.005,0.002
629,0,0.001,0.001,0,0.001,0.004,0.002,0.001,0.001,0.001,0.001,0,0.005,0.002
630,0,0.001,0.001,0,0.001,0.004,0.002,0.001,0.001,0.001,0.001,0,0.005,0.002
631,0,0.001,0.001,0,0.001,0.004,0.002,0.001,0.001,0.001,0.001,0,0.005,0.002
632,0,0.001,0.001,0,0.001,0.004,0.002,0.001,0.001,0.001,0.001,0,0.005,0.002
633,0,0.001,0.001,0,0.001,0.004,0.002,0.001,0.001,0.001,0.001,0,0.005,0.002
634,0,0.001,0.001,0,0.001,0.004,0.002,0.001,0.001,0.001,0.001,0,0.005,0.002
635,0,0.001,0.001,0,0.001,0.004,0.002,0.001,0.001,0.001,0.001,0,0.005,0.002
636,0,0.001,0.001,0,0.001,0.004,0.002,0.001,0.001,0.001,0.001,0,0.005,0.002
637,0,0.001,0.001,0,0.001,0.004,0.002,0.001,0.001,0.001,0.001,0,0.005,0.002
638,0,0.001,0.001,0,0.001,0.004,0.002,0.001,0.001,0.001,0.001,0,0.005,0.002
639,0,0.001,0.001,0,0.001,0.004,0.002,0.001,0.001,0.001,0.001,0,0.005,0.002
640,0,0.001,0.001,0,0.001,0.004,0.002,0.001,0.001,0.001,0.001,0,0.005,0.002
641,0,0.001,0.001,0,0.001,0.004,0.002,0.001,0.001,0.001,0.001,0,0.005,0.002
642,0,0.001,0.001,0,0.001,0.004,0.002,0.001,0.001,0.001,0.001,0,0.005,0.002
643,0,0.001,0.001,0,0.001,0.004,0.002,0.001,0.001,0.001,0.001,0,0.005,0.002
644,0,0.001,0.001,0,0.001,0.004,0.002,0.001,0.001,0.001,0.001,0,0.005,0.002
645,0,0.001,0.001,0,0.001,0.004,0.002,0.001,0.001,0.001,0.001,0,0.005,0.002
646,0,0.001,0.001,0,0.001,0.004,0.002,0.001,0.001,0.001,0.001,0,0.005,0.002
647,0,0.001,0.001,0,0.001,0.004,0.002,0.001,0.001,0.001,0.001,0,0.005,0.002
648,0,0.001,0.001,0,0.001,0.004,0.002,0.001,0.001,0.001,0.001,0,0.005,0.002
649,0,0.001,0.001,0,0.001,0.004,0.002,0.001,0.001,0.001,0.001,0,0.005,0.002
650,0,0.001,0.001,0,0.001,0.004,0.002,0.001,0.001,0.001,0.001,0,0.005,0.002
651,0,0.001,0.001,0,0.001,0.004,0.002,0.001,0.001,0.001,0.001,0,0.005,0.002
652,0,0.001,0.001,0,0.001,0.004,0.002,0.001,0.001,0.001,0.001,0,0.005,0.002
653,0,0.001,0.001,0,0.001,0.004,0.002,0.001,0.001,0.001,0.001,0,0.005,0.002
654,0,0.001,0.001,0,0.001,0.004,0.002,0.001,0.001,0.001,0.001,0,0.005,0.002
655,0,0.001,0.001,0,0.001,0.004,0.002,0.001,0.001,0.001,0.001,0,0.005,0.002
656,0,0.001,0.001,0,0.001,0.004,0.002,0.001,0.001,0.001,0.001,0,0.005,0.002
657,0,0.001,0.001,0,0.001,0.004,0.002,0.001,0.001,0.001,0.001,0,0.005,0.002
658,0,0.001,0.001,0,0.001,0.004,0.002,0.001,0.001,0.001,0.001,0,0.005,0.002
659,0,0.001,0.001,0,0.001,0.004,0.002,0.001,0.001,0.001,0.001,0,0.005,0.002
660,0,0.001,0.001,0,0.001,0.004,0.002,0.001,0.001,0.001,0.001,0,0.005,0.001
661,0,0.001,0.001,0,0.001,0.004,0.002,0.001,0.001,0.001,0.001,0,0.005,0.002
662,0,0.001,0.001,0,0.001,0.004,0.002,0.001,0.001,0.001,0.001,0,0.005,0.002
663,0,0.001,0.001,0,0.001,0.004,0.002,0.001,0.001,0.001,0.001,0,0.005,0.002
664,0,0.001,0.001,0,0.001,0.004,0.002,0.001,0.001,0.001,0.001,0,0.005,0.002
665,0,0.001,0.001,0,0.001,0.004,0.002,0.001,0.001,0.001,0.001,0,0.005,0.002
666,0,0.001,0.001,0,0.001,0.004,0.002,0.001,0.001,0.001,0.001,0,0.005,0.002
667,0,0.001,0.001,0,0.001,0.004,0.002,0.001,0.001,0.001,0.001,0,0.005,0.002
668,0,0.001,0.001,0,0.001,0.004,0.002,0.001,0.001,0.001,0.001,0,0.005,0.002
669,0,0.001,0.001,0,0.001,0.004,0.002,0.001,0.001,0.001,0.001,0,0.005,0.001
670,0,0.001,0.001,0,0.001,0.004,0.002,0.001,0.001,0.001,0.001,0,0.005,0.002
671,0,0.001,0.001,0,0.001,0.004,0.002,0.001,0.001,0.001,0.001,0,0.005,0.002
672,0,0.001,0.001,0,0.001,0.004,0.002,0.001,0.001,0.001,0.001,0,0.005,0.002
673,0,0.001,0.001,0,0.001,0.004,0.002,0.001,0.001,0.001,0.001,0,0.005,0.002
674,0,0.001,0.001,0,0.001,0.004,0.002,0.001,0.001,0.001,0.001,0,0.005,0.002
675,0,0.001,0.001,0,0.001,0.004,0.002,0.001,0.001,0.001,0.001,0,0.005,0.002
676,0,0.001,0.001,0,0.001,0.004,0.002,0.001,0.001,0.001,0.001,0,0.005,0.002
677,0,0.001,0.001,0,0.001,0.004,0.002,0.001,0.001,0.001,0.001,0,0.005,0.002
678,0,0.001,0.001,0,0.001,0.004,0.002,0.001,0.001,0.001,0.001,0,0.005,0.002
679,0,0.001,0.001,0,0.001,0.004,0.002,0.001,0.001,0.001,0.001,0,0.005,0.002
680,0,0.001,0.001,0,0.001,0.004,0.002,0.001,0.001,0.001,0.001,0,0.005,0.002
681,0,0.001,0.001,0,0.001,0.004,0.002,0.001,0.001,0.001,0.001,0,0.005,0.002
682,0,0.001,0.001,0,0.001,0.004,0.002,0.001,0.001,0.001,0.001,0,0.005,0.001
683,0,0.001,0.001,0,0.001,0.004,0.002,0.001,0.001,0.001,0.001,0,0.005,0.001
684,0,0.001,0.001,0,0.001,0.004,0.002,0.001,0.001,0.001,0.001,0,0.005,0.002
685,0,0.001,0.001,0,0.001,0.004,0.002,0.001,0.001,0.001,0.001,0,0.005,0.002
686,0,0.001,0.001,0,0.001,0.004,0.002,0.001,0.001,0.001,0.001,0,0.005,0.002
687,0,0.001,0.001,0,0.001,0.004,0.002,0.001,0.001,0.001,0.001,0,0.005,0.001
688,0,0.001,0.001,0,0.001,0.004,0.002,0.001,0.001,0.001,0.001,0,0.005,0.001
689,0,0.001,0.001,0,0.001,0.004,0.002,0.001,0.001,0.001,0.001,0,0.005,0.001
690,0,0.001,0.001,0,0.001,0.004,0.002,0.001,0.001,0.001,0.001,0,0.005,0.001
691,0,0.001,0.001,0,0.001,0.004,0.002,0.001,0.001,0.001,0.001,0,0.005,0.001
692,0,0.001,0.001,0,0.001,0.004,0.002,0.001,0.001,0.001,0.001,0,0.005,0.001
693,0,0.001,0.001,0,0.001,0.004,0.002,0.001,0.001,0.001,0.001,0,0.005,0.001
694,0,0.001,0.001,0,0.001,0.004,0.002,0.001,0.001,0.001,0.001,0,0.005,0.001
695,0,0.001,0.001,0,0.001,0.004,0.002,0.001,0.001,0.001,0.001,0,0.005,0.001
696,0,0.001,0.001,0,0.001,0.004,0.002,0.001,0.001,0.001,0.001,0,0.005,0.001
697,0,0.001,0.001,0,0.001,0.004,0.002,0.001,0.001,0.001,0.001,0,0.005,0.001
698,0,0.001,0.001,0,0.001,0.004,0.002,0.001,0.001,0.001,0.001,0,0.005,0.001
699,0,0.001,0.001,0,0.001,0.004,0.002,0.001,0.001,0.001,0.001,0,0.005,0.001
700,0,0.001,0.001,0,0.001,0.004,0.002,0.001,0.001,0.001,0.001,0,0.005,0.001
701,0,0.001,0.001,0,0.001,0.004,0.002,0.001,0.001,0.001,0.001,0,0.005,0.001
702,0,0.001,0.001,0,0.001,0.004,0.002,0.001,0.001,0.001,0.001,0,0.005,0.001
703,0,0.001,0.001,0,0.001,0.004,0.002,0.001,0.001,0.001,0.001,0,0.005,0.001
704,0,0.001,0.001,0,0.001,0.004,0.002,0.001,0.001,0.001,0.001,0,0.005,0.001
705,0,0.001,0.001,0,0.001,0.004,0.002,0.001,0.001,0.001,0.001,0,0.005,0.001
706,0,0.001,0.001,0,0.001,0.004,0.002,0.001,0.001,0.001,0.001,0,0.005,0.001
707,0,0.001,0.001,0,0.001,0.004,0.002,0.001,0.001,0.001,0.001,0,0.005,0.001
708,0,0.001,0.001,0,0.001,0.004,0.002,0.001,0.001,0.001,0.001,0,0.005,0.001
709,0,0.001,0.001,0,0.001,0.004,0.002,0.001,0.001,0.001,0.001,0,0.005,0.001
710,0,0.001,0.001,0,0.001,0.004,0.002,0.001,0.001,0.001,0.001,0,0.005,0.001
711,0,0.001,0.001,0,0.001,0.004,0.002,0.001,0.001,0.001,0.001,0,0.005,0.001
712,0,0.001,0.001,0,0.001,0.004,0.002,0.001,0.001,0.001,0.001,0,0.005,0.001
713,0,0.001,0.001,0,0.001,0.004,0.002,0.001,0.001,0.001,0.001,0,0.005,0.001
714,0,0.001,0.001,0,0.001,0.004,0.002,0.001,0.001,0.001,0.001,0,0.005,0.001
715,0,0.001,0.001,0,0.001,0.004,0.002,0.001,0.001,0.001,0.001,0,0.005,0.001
716,0,0.001,0.001,0,0.001,0.004,0.002,0.001,0.001,0.001,0.001,0,0.004,0.001
717,0,0.001,0.001,0,0.001,0.004,0.002,0.001,0.001,0.001,0.001,0,0.005,0.001
718,0,0.001,0.001,0,0.001,0.004,0.002,0.001,0.001,0.001,0.001,0,0.005,0.001
719,0,0.001,0.001,0,0.001,0.004,0.002,0.001,0.001,0.001,0.001,0,0.005,0.001
720,0,0.001,0.001,0,0.001,0.004,0.002,0.001,0.001,0.001,0.001,0,0.005,0.001
721,0,0.001,0.001,0,0.001,0.004,0.002,0.001,0.001,0.001,0.001,0,0.005,0.001
722,0,0.001,0.001,0,0.001,0.003,0.001,0.001,0.001,0.001,0.001,0,0.004,0.001
723,0,0.001,0.001,0,0.001,0.004,0.002,0.001,0.001,0.001,0.001,0,0.004,0.001
724,0,0.001,0.001,0,0.001,0.004,0.001,0.001,0.001,0.001,0.001,0,0.004,0.001
725,0,0.001,0.001,0,0.001,0.003,0.001,0.001,0.001,0.001,0.001,0,0.004,0.001
726,0,0.001,0.001,0,0.001,0.003,0.001,0.001,0.001,0.001,0.001,0,0.004,0.001
727,0,0.001,0.001,0,0.001,0.003,0.001,0.001,0.001,0.001,0.001,0,0.004,0.001
728,0,0.001,0.001,0,0.001,0.004,0.002,0.001,0.001,0.001,0.001,0,0.004,0.001
729,0,0.001,0.001,0,0.001,0.004,0.002,0.001,0.001,0.001,0.001,0,0.004,0.001
730,0,0.001,0.001,0,0.001,0.004,0.002,0.001,0.001,0.001,0.001,0,0.004,0.001
731,0,0.001,0.001,0,0.001,0.004,0.002,0.001,0.001,0.001,0.001,0,0.004,0.001
732,0,0.001,0.001,0,0.001,0.003,0.001,0.001,0.001,0.001,0.001,0,0.004,0.001
733,0,0.001,0.001,0,0.001,0.003,0.001,0.001,0.001,0.001,0.001,0,0.004,0.001
734,0,0.001,0.001,0,0.001,0.003,0.001,0.001,0.001,0.001,0.001,0,0.004,0.001
735,0,0.001,0.001,0,0.001,0.003,0.001,0.001,0.001,0.001,0.001,0,0.004,0.001
736,0,0.001,0.001,0,0.001,0.003,0.001,0.001,0.001,0.001,0.001,0,0.004,0.001
737,0,0.001,0.001,0,0.001,0.003,0.001,0.001,0.001,0.001,0.001,0,0.004,0.001
738,0,0.001,0.001,0,0.001,0.003,0.001,0.001,0.001,0.001,0.001,0,0.004,0.001
739,0,0.001,0.001,0,0.001,0.003,0.001,0.001,0.001,0.001,0.001,0,0.004,0.001
740,0,0.001,0.001,0,0.001,0.003,0.001,0.001,0.001,0.001,0.001,0,0.004,0.001
741,0,0.001,0.001,0,0.001,0.003,0.001,0.001,0.001,0.001,0.001,0,0.004,0.001
742,0,0.001,0.001,0,0.001,0.003,0.001,0.001,0.001,0.001,0.001,0,0.004,0.001
743,0,0.001,0.001,0,0.001,0.003,0.001,0.001,0.001,0.001,0.001,0,0.004,0.001
744,0,0.001,0.001,0,0.001,0.003,0.001,0.001,0.001,0.001,0.001,0,0.004,0.001
745,0,0.001,0.001,0,0.001,0.003,0.001,0.001,0.001,0.001,0.001,0,0.004,0.001
746,0,0.001,0.001,0,0.001,0.003,0.001,0.001,0.001,0.001,0.001,0,0.004,0.001
747,0,0.001,0.001,0,0.001,0.003,0.001,0.001,0.001,0.001,0.001,0,0.004,0.001
748,0,0.001,0.001,0,0.001,0.003,0.001,0.001,0.001,0.001,0.001,0,0.004,0.001
749,0,0.001,0.001,0,0.001,0.003,0.001,0.001,0.001,0.001,0.001,0,0.004,0.001
750,0,0.001,0.001,0,0.001,0.003,0.001,0.001,0.001,0.001,0.001,0,0.004,0.001
751,0,0.001,0.001,0,0.001,0.003,0.001,0.001,0.001,0.001,0.001,0,0.004,0.001
752,0,0.001,0.001,0,0.001,0.003,0.001,0.001,0.001,0.001,0.001,0,0.004,0.001
753,0,0.001,0.001,0,0.001,0.003,0.001,0.001,0.001,0.001,0.001,0,0.004,0.001
754,0,0.001,0.001,0,0.001,0.003,0.002,0.001,0.001,0.001,0.001,0,0.004,0.001
755,0,0.001,0.001,0,0.001,0.003,0.001,0.001,0.001,0.001,0.001,0,0.004,0.001
756,0,0.001,0.001,0,0.001,0.003,0.001,0.001,0.001,0.001,0.001,0,0.004,0.001
757,0,0.001,0.001,0,0.001,0.003,0.001,0.001,0.001,0.001,0.001,0,0.004,0.001
758,0,0.001,0.001,0,0.001,0.003,0.002,0.001,0.001,0.001,0.001,0,0.004,0.001
759,0,0.001,0.001,0,0.001,0.004,0.002,0.001,0.001,0.001,0.001,0,0.004,0.001
760,0.001,0.002,0.002,0.001,0.002,0.004,0.003,0.002,0.002,0.002,0.002,0.001,0.005,0.002
761,0,0.001,0.001,0,0.001,0.004,0.002,0.001,0.001,0.001,0.001,0,0.005,0.002
762,0,0.001,0.001,0,0.001,0.004,0.002,0.001,0.001,0.001,0.001,0,0.004,0.001
763,0,0.001,0.001,0,0.001,0.004,0.002,0.001,0.001,0.001,0.001,0,0.004,0.001
764,0,0.001,0.001,0,0.001,0.004,0.002,0.001,0.001,0.001,0.001,0,0.004,0.001
765,0,0.001,0.001,0,0.001,0.003,0.002,0.001,0.001,0.001,0.001,0,0.004,0.001
766,0,0.001,0.001,0,0.001,0.003,0.002,0.001,0.001,0.001,0.001,0,0.004,0.001
767,0,0.001,0.001,0,0.001,0.003,0.002,0.001,0.001,0.001,0.001,0,0.004,0.001
768,0,0.001,0.001,0,0.001,0.003,0.002,0.001,0.001,0.001,0.001,0,0.004,0.001
769,0,0.001,0.001,0,0.001,0.003,0.002,0.001,0.001,0.001,0.001,0,0.004,0.001
770,0,0.001,0.001,0,0.001,0.003,0.002,0.001,0.001,0.001,0.001,0,0.004,0.001
771,0,0.001,0.001,0,0.001,0.004,0.002,0.001,0.001,0.001,0.001,0,0.004,0.001
772,0,0.001,0.001,0,0.001,0.004,0.002,0.001,0.001,0.001,0.001,0,0.004,0.001
773,0,0.001,0.001,0,0.001,0.004,0.002,0.001,0.001,0.001,0.001,0,0.004,0.001
774,0,0.001,0.001,0,0.001,0.004,0.002,0.001,0.001,0.001,0.001,0,0.004,0.001
775,0,0.001,0.001,0,0.001,0.003,0.002,0.001,0.001,0.001,0.001,0,0.004,0.001
776,0,0.001,0.001,0,0.001,0.004,0.002,0.001,0.001,0.001,0.001,0,0.004,0.001
777,0,0.001,0.001,0,0.001,0.004,0.002,0.001,0.001,0.001,0.001,0,0.004,0.001
778,0,0.001,0.001,0,0.001,0.004,0.002,0.001,0.001,0.001,0.001,0,0.004,0.001
779,0,0.001,0.001,0,0.001,0.004,0.002,0.001,0.001,0.001,0.001,0,0.004,0.001
780,0,0.001,0.001,0,0.001,0.003,0.002,0.001,0.001,0.001,0.001,0,0.004,0.001
781,0,0.001,0.001,0,0.001,0.003,0.002,0.001,0.001,0.001,0.001,0,0.004,0.001
782,0,0.001,0.001,0,0.001,0.003,0.002,0.001,0.001,0.001,0.001,0,0.004,0.001
783,0,0.001,0.001,0,0.001,0.003,0.002,0.001,0.001,0.001,0.001,0,0.004,0.001
784,0,0.001,0.001,0,0.001,0.004,0.002,0.001,0.001,0.001,0.001,0,0.004,0.001
785,0,0.001,0.001,0,0.001,0.004,0.002,0.001,0.001,0.001,0.001,0,0.004,0.001
786,0,0.001,0.001,0,0.001,0.004,0.002,0.001,0.001,0.001,0.001,0,0.004,0.001
787,0,0.001,0.001,0,0.001,0.003,0.002,0.001,0.001,0.001,0.001,0,0.004,0.001
788,0,0.001,0.001,0,0.001,0.004,0.002,0.001,0.001,0.001,0.001,0,0.004,0.001
789,0,0.001,0.001,0.001,0.001,0.004,0.002,0.002,0.001,0.001,0.001,0,0.004,0.001
790,0,0.001,0.001,0.001,0.001,0.004,0.002,0.001,0.001,0.001,0.001,0,0.004,0.001
791,0,0.001,0.001,0.001,0.001,0.004,0.002,0.001,0.001,0.001,0.001,0,0.004,0.001
792,0,0.001,0.001,0,0.001,0.004,0.002,0.001,0.001,0.001,0.001,0,0.004,0.001
793,0,0.001,0.001,0,0.001,0.003,0.002,0.001,0.001,0.001,0.001,0,0.004,0.001
794,0,0.001,0.001,0,0.001,0.003,0.002,0.001,0.001,0.001,0.001,0,0.004,0.001
795,0,0.001,0.001,0.001,0.001,0.003,0.002,0.001,0.001,0.001,0.001,0,0.004,0.001
796,0,0.001,0.001,0.001,0.001,0.004,0.002,0.001,0.001,0.001,0.001,0,0.004,0.001
797,0,0.001,0.001,0,0.001,0.004,0.002,0.001,0.001,0.001,0.001,0,0.004,0.001
798,0,0.001,0.001,0,0.001,0.003,0.002,0.001,0.001,0.001,0.001,0,0.004,0.001
799,0,0.001,0.001,0.001,0.001,0.003,0.002,0.001,0.001,0.001,0.001,0,0.004,0.001
800,0,0.001,0.001,0,0.001,0.003,0.002,0.001,0.001,0.001,0.001,0,0.004,0.001
801,0,0.001,0.001,0.001,0.001,0.003,0.002,0.001,0.001,0.001,0.001,0,0.004,0.001
802,0,0.001,0.001,0.001,0.001,0.003,0.002,0.001,0.001,0.001,0.001,0,0.004,0.001
803,0,0.001,0.001,0.001,0.001,0.003,0.002,0.001,0.001,0.001,0.001,0,0.004,0.001
804,0,0.001,0.001,0,0.001,0.003,0.002,0.001,0.001,0.001,0.001,0,0.004,0.001
805,0,0.001,0.001,0,0.001,0.003,0.002,0.001,0.001,0.001,0.001,0,0.004,0.001
806,0,0.001,0.001,0,0.001,0.003,0.002,0.001,0.001,0.001,0.001,0,0.004,0.001
807,0,0.001,0.001,0,0.001,0.003,0.002,0.001,0.001,0.001,0.001,0,0.004,0.001
808,0,0.001,0.001,0,0.001,0.003,0.002,0.001,0.001,0.001,0.001,0,0.004,0.001
809,0,0.001,0.001,0.001,0.001,0.003,0.002,0.001,0.001,0.001,0.001,0,0.004,0.001
810,0,0.001,0.001,0,0.001,0.003,0.002,0.001,0.001,0.001,0.001,0,0.004,0.001
811,0,0.001,0.001,0,0.001,0.003,0.002,0.001,0.001,0.001,0.001,0,0.004,0.001
812,0,0.001,0.001,0,0.001,0.003,0.002,0.001,0.001,0.001,0.001,0,0.004,0.001
813,0,0.001,0.001,0,0.001,0.003,0.002,0.001,0.001,0.001,0.001,0,0.004,0.001
814,0,0.001,0.001,0,0.001,0.003,0.002,0.001,0.001,0.001,0.001,0,0.004,0.001
815,0,0.001,0.001,0,0.001,0.003,0.002,0.001,0.001,0.001,0.001,0,0.004,0.001
816,0,0.001,0.001,0.001,0.001,0.003,0.002,0.001,0.001,0.001,0.001,0,0.004,0.001
817,0,0.001,0.001,0.001,0.001,0.003,0.002,0.001,0.001,0.001,0.001,0,0.004,0.001
818,0,0.001,0.001,0.001,0.001,0.003,0.002,0.001,0.001,0.001,0.001,0,0.004,0.001
819,0,0.001,0.001,0,0.001,0.003,0.002,0.001,0.001,0.001,0.001,0,0.004,0.001
820,0,0.001,0.001,0.001,0.001,0.003,0.002,0.001,0.001,0.001,0.001,0,0.004,0.001
821,0,0.001,0.001,0,0.001,0.003,0.002,0.001,0.001,0.001,0.001,0,0.004,0.001
822,0,0.001,0.001,0,0.001,0.003,0.002,0.001,0.001,0.001,0.001,0,0.004,0.001
823,0,0.001,0.001,0,0.001,0.003,0.002,0.001,0.001,0.001,0.001,0,0.004,0.001
824,0,0.001,0.001,0,0.001,0.003,0.002,0.001,0.001,0.001,0.001,0,0.004,0.001
825,0,0.001,0.001,0,0.001,0.003,0.002,0.001,0.001,0.001,0.001,0,0.004,0.001
826,0,0.001,0.001,0.001,0.001,0.003,0.002,0.001,0.001,0.001,0.001,0,0.004,0.001
827,0,0.001,0.001,0.001,0.001,0.003,0.002,0.001,0.001,0.001,0.001,0,0.004,0.001
828,0,0.001,0.001,0,0.001,0.003,0.002,0.001,0.001,0.001,0.001,0,0.004,0.001
829,0,0.001,0.001,0,0.001,0.003,0.002,0.001,0.001,0.001,0.001,0,0.004,0.001
830,0,0.001,0.001,0,0.001,0.003,0.002,0.001,0.001,0.001,0.001,0,0.004,0.001
831,0,0.001,0.001,0,0.001,0.003,0.002,0.001,0.001,0.001,0.001,0,0.004,0.001
832,0,0.001,0.001,0,0.001,0.003,0.002,0.001,0.001,0.001,0.001,0,0.004,0.001
833,0,0.001,0.001,0,0.001,0.003,0.002,0.001,0.001,0.001,0.001,0,0.004,0.001
834,0,0.001,0.001,0,0.001,0.003,0.002,0.001,0.001,0.001,0.001,0,0.004,0.001
835,0,0.001,0.001,0,0.001,0.003,0.002,0.001,0.001,0.001,0.001,0,0.004,0.001
836,0,0.001,0.001,0,0.001,0.003,0.002,0.001,0.001,0.001,0.001,0,0.004,0.001
837,0,0.001,0.001,0,0.001,0.003,0.002,0.001,0.001,0.001,0.001,0,0.004,0.001
838,0,0.001,0.001,0,0.001,0.003,0.002,0.001,0.001,0.001,0.001,0,0.004,0.001
839,0,0.001,0.001,0,0.001,0.003,0.002,0.001,0.001,0.001,0.001,0,0.004,0.001
840,0,0.001,0.001,0,0.001,0.003,0.002,0.001,0.001,0.001,0.001,0,0.004,0.001
841,0,0.001,0.001,0,0.001,0.003,0.002,0.001,0.001,0.001,0.001,0,0.004,0.001
842,0,0.001,0.001,0,0.001,0.003,0.002,0.001,0.001,0.001,0.001,0,0.004,0.001
843,0,0.001,0.001,0,0.001,0.003,0.002,0.001,0.001,0.001,0.001,0,0.004,0.001
844,0,0.001,0.001,0,0.001,0.003,0.002,0.001,0.001,0.001,0.001,0,0.004,0.001
845,0,0.001,0.001,0,0.001,0.003,0.002,0.001,0.001,0.001,0.001,0,0.004,0.001
846,0,0.001,0.001,0,0.001,0.003,0.002,0.001,0.001,0.001,0.001,0,0.004,0.001
847,0,0.001,0.001,0,0.001,0.003,0.002,0.001,0.001,0.001,0.001,0,0.004,0.001
848,0,0.001,0.001,0,0.001,0.003,0.002,0.001,0.001,0.001,0.001,0,0.004,0.001
849,0,0.001,0.001,0,0.001,0.003,0.002,0.001,0.001,0.001,0.001,0,0.004,0.001
850,0,0.001,0.001,0,0.001,0.003,0.002,0.001,0.001,0.001,0.001,0,0.004,0.001
