Wavelength nm.,MilliQ,CC4_17dec24_9R2,CC3_17dec24_01R1,C50_17dec24_6R1,C50_17dec24_01R1,CC4_17dec24_9R1,CC2_17feb25_BOTR1,CP2_17feb25_BOTR1,CC4_17feb25_BOTR2,CS2_17feb25_01R1
190,0.008,0.417,0.429,0.423,0.427,0.398,0.518,0.486,0.475,0.143
191,0.006,0.383,0.392,0.386,0.395,0.363,0.471,0.449,0.439,0.137
192,0.006,0.352,0.36,0.353,0.362,0.331,0.431,0.414,0.405,0.131
193,0.005,0.317,0.326,0.319,0.327,0.298,0.39,0.38,0.37,0.125
194,0.004,0.291,0.3,0.292,0.301,0.272,0.358,0.352,0.342,0.12
195,0.004,0.265,0.276,0.267,0.275,0.249,0.331,0.327,0.318,0.116
196,0.004,0.244,0.257,0.246,0.254,0.23,0.308,0.305,0.297,0.112
197,0.003,0.226,0.24,0.228,0.236,0.214,0.288,0.287,0.28,0.109
198,0.002,0.21,0.225,0.213,0.22,0.199,0.271,0.271,0.265,0.106
199,0.003,0.197,0.213,0.2,0.207,0.188,0.257,0.258,0.253,0.104
200,0.003,0.186,0.202,0.188,0.195,0.178,0.245,0.247,0.242,0.102
201,0.002,0.176,0.191,0.178,0.184,0.168,0.234,0.236,0.232,0.1
202,0.002,0.167,0.182,0.169,0.175,0.16,0.225,0.228,0.224,0.098
203,0.002,0.16,0.175,0.162,0.167,0.153,0.217,0.22,0.216,0.096
204,0.001,0.153,0.168,0.155,0.159,0.147,0.209,0.212,0.209,0.094
205,0.001,0.147,0.162,0.149,0.153,0.141,0.203,0.206,0.202,0.093
206,0.001,0.141,0.158,0.144,0.148,0.136,0.197,0.2,0.197,0.091
207,0.001,0.137,0.153,0.139,0.142,0.132,0.191,0.194,0.191,0.089
208,0.001,0.132,0.148,0.135,0.138,0.129,0.186,0.189,0.186,0.088
209,0.001,0.128,0.144,0.131,0.133,0.124,0.18,0.183,0.181,0.086
210,0.001,0.124,0.14,0.126,0.129,0.121,0.175,0.178,0.176,0.084
211,0.001,0.12,0.136,0.122,0.125,0.117,0.169,0.172,0.17,0.082
212,0.001,0.116,0.132,0.119,0.121,0.113,0.164,0.167,0.164,0.081
213,0.001,0.113,0.128,0.115,0.117,0.11,0.158,0.161,0.158,0.079
214,0.001,0.109,0.124,0.111,0.113,0.107,0.152,0.155,0.152,0.077
215,0.001,0.106,0.121,0.108,0.11,0.103,0.147,0.15,0.147,0.075
216,0.001,0.102,0.117,0.104,0.106,0.1,0.141,0.145,0.141,0.073
217,0.001,0.099,0.114,0.101,0.103,0.097,0.136,0.139,0.136,0.071
218,0.001,0.096,0.111,0.098,0.1,0.094,0.131,0.135,0.131,0.07
219,0.001,0.094,0.108,0.095,0.097,0.092,0.126,0.13,0.126,0.068
220,0.001,0.091,0.106,0.093,0.094,0.089,0.121,0.126,0.121,0.067
221,0.001,0.088,0.103,0.09,0.091,0.086,0.117,0.121,0.116,0.065
222,0.001,0.086,0.1,0.088,0.088,0.084,0.113,0.117,0.112,0.064
223,0.001,0.083,0.098,0.085,0.086,0.082,0.109,0.113,0.108,0.063
224,0.001,0.081,0.096,0.083,0.084,0.08,0.105,0.11,0.104,0.062
225,0.001,0.079,0.094,0.08,0.081,0.078,0.102,0.106,0.101,0.061
226,0.001,0.077,0.092,0.078,0.079,0.076,0.098,0.103,0.097,0.059
227,0.001,0.075,0.09,0.076,0.077,0.074,0.095,0.1,0.094,0.058
228,0.001,0.073,0.088,0.074,0.075,0.072,0.092,0.097,0.091,0.057
229,0.001,0.072,0.086,0.073,0.074,0.07,0.089,0.095,0.088,0.056
230,0.001,0.07,0.084,0.071,0.072,0.068,0.087,0.092,0.086,0.055
231,0.001,0.068,0.082,0.069,0.07,0.067,0.085,0.09,0.083,0.054
232,0.001,0.067,0.081,0.068,0.069,0.066,0.082,0.088,0.081,0.053
233,0.001,0.065,0.079,0.067,0.067,0.064,0.08,0.086,0.079,0.052
234,0.001,0.064,0.078,0.065,0.066,0.063,0.079,0.084,0.078,0.051
235,0,0.063,0.076,0.064,0.065,0.062,0.077,0.082,0.076,0.05
236,0,0.062,0.075,0.063,0.063,0.061,0.075,0.08,0.074,0.049
237,0.001,0.06,0.074,0.061,0.062,0.06,0.074,0.079,0.073,0.049
238,0.001,0.059,0.073,0.06,0.061,0.059,0.073,0.077,0.071,0.048
239,0.001,0.058,0.072,0.059,0.06,0.058,0.071,0.076,0.07,0.047
240,0.001,0.058,0.07,0.059,0.059,0.057,0.07,0.075,0.069,0.047
241,0,0.057,0.069,0.058,0.058,0.056,0.069,0.074,0.068,0.046
242,0,0.056,0.068,0.057,0.057,0.055,0.068,0.073,0.067,0.045
243,0,0.055,0.068,0.056,0.056,0.055,0.067,0.072,0.066,0.045
244,0,0.054,0.067,0.055,0.056,0.054,0.066,0.071,0.065,0.044
245,0,0.054,0.066,0.055,0.055,0.053,0.065,0.07,0.065,0.044
246,0,0.053,0.065,0.054,0.054,0.053,0.065,0.069,0.064,0.043
247,0,0.052,0.064,0.053,0.054,0.052,0.064,0.069,0.063,0.042
248,0,0.052,0.064,0.053,0.053,0.052,0.063,0.068,0.062,0.042
249,0,0.051,0.063,0.053,0.052,0.051,0.062,0.067,0.062,0.041
250,0,0.051,0.063,0.052,0.052,0.051,0.062,0.067,0.061,0.041
251,0,0.051,0.062,0.052,0.052,0.05,0.061,0.066,0.061,0.041
252,0,0.05,0.062,0.051,0.051,0.05,0.061,0.065,0.06,0.04
253,0,0.05,0.061,0.051,0.051,0.05,0.06,0.065,0.06,0.04
254,0,0.049,0.061,0.05,0.05,0.049,0.06,0.064,0.059,0.04
255,0,0.049,0.06,0.05,0.05,0.049,0.059,0.064,0.058,0.039
256,0,0.048,0.06,0.05,0.05,0.049,0.059,0.064,0.058,0.039
257,0,0.048,0.059,0.049,0.049,0.048,0.058,0.063,0.057,0.038
258,0,0.047,0.058,0.049,0.048,0.048,0.058,0.062,0.057,0.038
259,0,0.047,0.058,0.048,0.048,0.047,0.057,0.062,0.057,0.038
260,0,0.047,0.057,0.048,0.048,0.047,0.056,0.061,0.056,0.037
261,0,0.046,0.057,0.048,0.047,0.046,0.056,0.061,0.055,0.037
262,0,0.046,0.056,0.047,0.047,0.046,0.055,0.06,0.055,0.037
263,0,0.045,0.056,0.047,0.046,0.045,0.055,0.06,0.054,0.036
264,0,0.045,0.055,0.046,0.046,0.045,0.054,0.059,0.053,0.036
265,0,0.044,0.054,0.045,0.045,0.044,0.053,0.058,0.053,0.035
266,0,0.044,0.054,0.045,0.044,0.044,0.053,0.058,0.052,0.035
267,0,0.043,0.053,0.044,0.044,0.043,0.052,0.057,0.052,0.035
268,0,0.042,0.053,0.044,0.043,0.043,0.052,0.056,0.051,0.034
269,0,0.042,0.052,0.043,0.043,0.042,0.051,0.056,0.05,0.034
270,0,0.041,0.051,0.042,0.042,0.041,0.05,0.055,0.05,0.033
271,0,0.041,0.051,0.042,0.041,0.041,0.049,0.054,0.049,0.033
272,0,0.04,0.05,0.041,0.041,0.04,0.049,0.054,0.048,0.033
273,0,0.039,0.049,0.04,0.04,0.04,0.048,0.053,0.048,0.032
274,0,0.039,0.049,0.04,0.04,0.039,0.047,0.052,0.047,0.032
275,0,0.038,0.048,0.039,0.039,0.038,0.047,0.052,0.046,0.032
276,0,0.037,0.047,0.038,0.038,0.038,0.046,0.051,0.046,0.031
277,0,0.037,0.047,0.038,0.037,0.037,0.046,0.051,0.045,0.031
278,0,0.036,0.046,0.037,0.037,0.036,0.045,0.049,0.044,0.03
279,0,0.035,0.045,0.036,0.036,0.035,0.044,0.049,0.043,0.03
280,0,0.034,0.044,0.035,0.035,0.034,0.043,0.048,0.042,0.029
281,0,0.034,0.043,0.035,0.035,0.034,0.042,0.047,0.042,0.029
282,0,0.033,0.043,0.034,0.034,0.033,0.041,0.046,0.041,0.028
283,0,0.033,0.042,0.033,0.033,0.033,0.041,0.046,0.04,0.028
284,0,0.032,0.042,0.033,0.033,0.032,0.04,0.045,0.04,0.028
285,0,0.031,0.041,0.032,0.032,0.032,0.039,0.044,0.039,0.028
286,0,0.03,0.04,0.031,0.031,0.031,0.039,0.043,0.038,0.027
287,0,0.03,0.04,0.03,0.031,0.03,0.038,0.043,0.037,0.027
288,0,0.029,0.039,0.03,0.03,0.029,0.037,0.042,0.037,0.026
289,0,0.028,0.038,0.029,0.029,0.029,0.036,0.041,0.036,0.026
290,0,0.028,0.037,0.029,0.029,0.028,0.036,0.041,0.036,0.025
291,0,0.027,0.037,0.028,0.028,0.027,0.035,0.04,0.035,0.025
292,0,0.026,0.036,0.027,0.027,0.027,0.034,0.039,0.034,0.025
293,0,0.026,0.035,0.026,0.027,0.026,0.034,0.038,0.033,0.024
294,0,0.025,0.035,0.026,0.026,0.026,0.033,0.038,0.033,0.024
295,0,0.025,0.034,0.025,0.026,0.025,0.032,0.037,0.032,0.024
296,0,0.024,0.033,0.024,0.025,0.024,0.032,0.036,0.031,0.023
297,0,0.023,0.033,0.024,0.025,0.024,0.031,0.036,0.031,0.023
298,0,0.023,0.032,0.024,0.024,0.023,0.031,0.035,0.03,0.023
299,0,0.023,0.032,0.023,0.024,0.023,0.03,0.034,0.03,0.022
300,0,0.022,0.031,0.023,0.023,0.022,0.03,0.034,0.029,0.022
301,0,0.022,0.031,0.022,0.023,0.022,0.029,0.034,0.029,0.022
302,0,0.021,0.03,0.022,0.022,0.022,0.029,0.033,0.028,0.022
303,0,0.021,0.03,0.021,0.022,0.021,0.028,0.032,0.028,0.021
304,0,0.02,0.029,0.021,0.021,0.021,0.027,0.032,0.027,0.02
305,0,0.02,0.029,0.02,0.021,0.02,0.027,0.032,0.027,0.02
306,0,0.02,0.028,0.02,0.021,0.02,0.026,0.031,0.026,0.02
307,0,0.019,0.028,0.02,0.02,0.02,0.026,0.031,0.026,0.02
308,0,0.019,0.027,0.02,0.02,0.019,0.026,0.03,0.026,0.02
309,0,0.018,0.027,0.019,0.019,0.019,0.025,0.03,0.025,0.02
310,0,0.018,0.027,0.018,0.019,0.018,0.025,0.029,0.025,0.019
311,0,0.018,0.026,0.018,0.019,0.018,0.024,0.029,0.024,0.019
312,0,0.018,0.026,0.018,0.019,0.018,0.024,0.028,0.024,0.019
313,0,0.017,0.026,0.018,0.018,0.018,0.024,0.028,0.024,0.018
314,0,0.017,0.025,0.017,0.018,0.017,0.023,0.028,0.023,0.018
315,0,0.017,0.025,0.017,0.017,0.017,0.023,0.027,0.023,0.017
316,0,0.016,0.024,0.016,0.017,0.017,0.022,0.027,0.022,0.017
317,0,0.016,0.024,0.016,0.017,0.016,0.022,0.026,0.022,0.017
318,0,0.016,0.024,0.016,0.016,0.016,0.022,0.026,0.021,0.017
319,0,0.015,0.023,0.016,0.016,0.016,0.021,0.026,0.021,0.017
320,0,0.015,0.023,0.015,0.016,0.016,0.021,0.025,0.021,0.017
321,0,0.014,0.023,0.015,0.015,0.015,0.02,0.025,0.021,0.016
322,0,0.014,0.022,0.014,0.015,0.015,0.02,0.024,0.02,0.016
323,0,0.014,0.022,0.014,0.015,0.015,0.02,0.024,0.02,0.016
324,0,0.014,0.022,0.014,0.015,0.015,0.02,0.024,0.02,0.016
325,0,0.014,0.022,0.014,0.015,0.015,0.019,0.024,0.02,0.016
326,0,0.014,0.021,0.014,0.014,0.014,0.019,0.023,0.019,0.015
327,0,0.013,0.021,0.013,0.014,0.014,0.018,0.023,0.019,0.015
328,0,0.013,0.021,0.013,0.014,0.014,0.018,0.023,0.018,0.015
329,0,0.013,0.021,0.013,0.014,0.014,0.018,0.022,0.018,0.015
330,0,0.013,0.02,0.013,0.013,0.013,0.018,0.022,0.018,0.015
331,0,0.012,0.02,0.013,0.013,0.013,0.018,0.022,0.017,0.014
332,0,0.012,0.02,0.012,0.013,0.013,0.017,0.021,0.017,0.014
333,0,0.012,0.019,0.012,0.013,0.013,0.017,0.021,0.017,0.014
334,0,0.012,0.019,0.012,0.012,0.012,0.017,0.021,0.017,0.014
335,0,0.011,0.019,0.012,0.012,0.012,0.016,0.02,0.017,0.013
336,0,0.011,0.019,0.012,0.012,0.012,0.016,0.02,0.016,0.013
337,0,0.011,0.018,0.011,0.012,0.012,0.016,0.02,0.016,0.013
338,0,0.011,0.018,0.011,0.012,0.011,0.015,0.02,0.016,0.012
339,0.001,0.011,0.018,0.011,0.012,0.012,0.016,0.02,0.016,0.013
340,0.001,0.012,0.019,0.012,0.013,0.012,0.016,0.02,0.017,0.014
341,0,0.01,0.017,0.01,0.011,0.011,0.015,0.019,0.016,0.012
342,0,0.011,0.017,0.01,0.011,0.011,0.015,0.019,0.015,0.012
343,0,0.01,0.017,0.01,0.011,0.011,0.014,0.018,0.015,0.012
344,0,0.01,0.017,0.01,0.011,0.011,0.014,0.018,0.015,0.012
345,0,0.01,0.016,0.01,0.011,0.01,0.014,0.018,0.014,0.012
346,0,0.01,0.016,0.01,0.011,0.01,0.014,0.017,0.014,0.011
347,0,0.01,0.017,0.01,0.011,0.01,0.014,0.017,0.014,0.011
348,0,0.009,0.016,0.009,0.01,0.01,0.014,0.017,0.014,0.011
349,0,0.009,0.016,0.009,0.01,0.01,0.013,0.017,0.013,0.011
350,0,0.009,0.016,0.009,0.01,0.009,0.013,0.017,0.013,0.011
351,0,0.009,0.015,0.009,0.01,0.009,0.013,0.016,0.013,0.011
352,0,0.009,0.015,0.009,0.01,0.009,0.013,0.016,0.013,0.011
353,0,0.009,0.015,0.009,0.01,0.009,0.012,0.016,0.013,0.011
354,0,0.008,0.015,0.008,0.009,0.009,0.012,0.016,0.012,0.01
355,0,0.008,0.014,0.008,0.009,0.009,0.012,0.015,0.012,0.01
356,0,0.008,0.014,0.008,0.009,0.008,0.011,0.015,0.012,0.009
357,0,0.008,0.014,0.008,0.009,0.008,0.011,0.015,0.012,0.01
358,0,0.008,0.014,0.008,0.009,0.009,0.011,0.015,0.012,0.01
359,0,0.007,0.014,0.008,0.008,0.008,0.011,0.015,0.011,0.009
360,0,0.007,0.014,0.007,0.008,0.008,0.011,0.015,0.012,0.009
361,0,0.008,0.013,0.007,0.008,0.008,0.011,0.014,0.011,0.009
362,0,0.007,0.013,0.007,0.008,0.008,0.011,0.014,0.011,0.009
363,0,0.007,0.013,0.007,0.008,0.008,0.01,0.014,0.011,0.009
364,0,0.007,0.013,0.007,0.008,0.008,0.01,0.014,0.011,0.009
365,0,0.007,0.012,0.007,0.007,0.007,0.01,0.013,0.01,0.008
366,0,0.007,0.013,0.007,0.007,0.007,0.01,0.013,0.01,0.008
367,0,0.006,0.012,0.006,0.007,0.007,0.01,0.013,0.01,0.008
368,0,0.006,0.012,0.006,0.007,0.007,0.01,0.013,0.01,0.008
369,0,0.006,0.012,0.006,0.007,0.007,0.009,0.013,0.01,0.008
370,0,0.006,0.012,0.006,0.007,0.007,0.009,0.012,0.009,0.007
371,0,0.006,0.012,0.006,0.007,0.006,0.009,0.012,0.009,0.007
372,0,0.006,0.012,0.006,0.007,0.007,0.009,0.012,0.009,0.008
373,0,0.006,0.012,0.006,0.007,0.007,0.009,0.012,0.009,0.008
374,0,0.006,0.011,0.006,0.007,0.007,0.009,0.012,0.009,0.008
375,0,0.006,0.011,0.006,0.007,0.006,0.008,0.012,0.009,0.007
376,0,0.005,0.011,0.005,0.006,0.006,0.008,0.012,0.009,0.007
377,0,0.005,0.011,0.005,0.006,0.006,0.008,0.012,0.009,0.007
378,0,0.005,0.011,0.005,0.006,0.006,0.008,0.012,0.009,0.007
379,0,0.006,0.011,0.005,0.006,0.006,0.008,0.011,0.008,0.007
380,0,0.005,0.01,0.005,0.006,0.006,0.008,0.011,0.008,0.007
381,0,0.005,0.011,0.005,0.006,0.006,0.008,0.011,0.008,0.007
382,0,0.005,0.01,0.005,0.006,0.006,0.008,0.011,0.008,0.006
383,0,0.005,0.01,0.005,0.006,0.006,0.007,0.011,0.008,0.006
384,0,0.005,0.01,0.005,0.006,0.006,0.007,0.011,0.008,0.006
385,0,0.005,0.01,0.005,0.006,0.005,0.007,0.011,0.008,0.006
386,0,0.005,0.01,0.005,0.006,0.005,0.007,0.01,0.008,0.006
387,0,0.005,0.01,0.005,0.006,0.005,0.007,0.01,0.007,0.006
388,0,0.005,0.01,0.004,0.005,0.005,0.007,0.01,0.007,0.006
389,0,0.005,0.01,0.004,0.005,0.005,0.007,0.01,0.007,0.006
390,0,0.004,0.009,0.004,0.005,0.005,0.007,0.01,0.007,0.006
391,0,0.004,0.009,0.004,0.005,0.005,0.006,0.01,0.007,0.005
392,0,0.004,0.009,0.004,0.005,0.005,0.006,0.009,0.007,0.005
393,0,0.004,0.009,0.004,0.005,0.005,0.006,0.009,0.007,0.005
394,0,0.004,0.009,0.004,0.005,0.005,0.006,0.009,0.007,0.005
395,0,0.004,0.009,0.004,0.005,0.005,0.006,0.009,0.007,0.005
396,0,0.004,0.009,0.004,0.005,0.005,0.006,0.009,0.007,0.005
397,0,0.004,0.009,0.004,0.005,0.004,0.006,0.009,0.006,0.005
398,0,0.004,0.008,0.004,0.004,0.004,0.006,0.009,0.006,0.005
399,0,0.004,0.009,0.004,0.005,0.004,0.005,0.009,0.006,0.005
400,0,0.004,0.008,0.003,0.004,0.004,0.005,0.009,0.006,0.005
401,0,0.004,0.008,0.003,0.004,0.004,0.005,0.009,0.006,0.005
402,0,0.004,0.008,0.003,0.004,0.004,0.005,0.009,0.006,0.005
403,0,0.003,0.008,0.003,0.004,0.004,0.005,0.008,0.006,0.005
404,0,0.003,0.008,0.003,0.004,0.004,0.005,0.008,0.006,0.005
405,0,0.003,0.008,0.003,0.004,0.004,0.005,0.008,0.006,0.004
406,0,0.003,0.008,0.003,0.004,0.004,0.005,0.008,0.006,0.004
407,0,0.003,0.008,0.003,0.004,0.004,0.005,0.008,0.006,0.004
408,0,0.003,0.008,0.003,0.004,0.004,0.005,0.008,0.006,0.004
409,0,0.003,0.008,0.003,0.004,0.004,0.005,0.008,0.005,0.004
410,0,0.003,0.008,0.003,0.004,0.004,0.005,0.008,0.005,0.004
411,0,0.003,0.008,0.003,0.004,0.004,0.005,0.008,0.005,0.004
412,0,0.003,0.007,0.003,0.004,0.004,0.005,0.008,0.005,0.004
413,0,0.003,0.007,0.003,0.004,0.003,0.004,0.008,0.005,0.004
414,0,0.003,0.007,0.003,0.004,0.004,0.004,0.008,0.005,0.004
415,0,0.003,0.007,0.003,0.004,0.003,0.004,0.008,0.005,0.004
416,0,0.003,0.007,0.003,0.004,0.004,0.004,0.008,0.005,0.004
417,0,0.003,0.007,0.003,0.004,0.004,0.004,0.007,0.005,0.004
418,0,0.003,0.007,0.003,0.004,0.003,0.004,0.007,0.005,0.004
419,0,0.003,0.007,0.003,0.004,0.003,0.004,0.007,0.005,0.004
420,0,0.003,0.007,0.003,0.004,0.003,0.004,0.007,0.005,0.004
421,0,0.003,0.007,0.002,0.004,0.003,0.004,0.007,0.005,0.004
422,0,0.002,0.007,0.002,0.004,0.003,0.004,0.007,0.005,0.004
423,0,0.003,0.007,0.002,0.003,0.003,0.004,0.007,0.005,0.004
424,0,0.002,0.007,0.002,0.003,0.003,0.004,0.007,0.005,0.004
425,0,0.002,0.007,0.002,0.003,0.003,0.004,0.007,0.005,0.004
426,0,0.002,0.007,0.002,0.003,0.003,0.004,0.007,0.004,0.003
427,0,0.002,0.007,0.002,0.003,0.003,0.004,0.007,0.004,0.004
428,0,0.002,0.007,0.002,0.003,0.003,0.004,0.007,0.004,0.003
429,0,0.002,0.007,0.002,0.003,0.003,0.004,0.007,0.004,0.003
430,0,0.002,0.007,0.002,0.003,0.003,0.004,0.007,0.004,0.003
431,0,0.002,0.007,0.002,0.003,0.003,0.003,0.007,0.004,0.003
432,0,0.002,0.006,0.002,0.003,0.003,0.003,0.006,0.004,0.003
433,0,0.002,0.006,0.002,0.003,0.003,0.003,0.006,0.004,0.003
434,0,0.002,0.006,0.002,0.003,0.003,0.003,0.006,0.004,0.003
435,0,0.002,0.006,0.002,0.003,0.003,0.003,0.006,0.004,0.003
436,0,0.002,0.006,0.002,0.003,0.002,0.003,0.006,0.004,0.003
437,0,0.002,0.006,0.002,0.003,0.002,0.003,0.006,0.004,0.003
438,0,0.002,0.006,0.002,0.003,0.002,0.003,0.006,0.004,0.003
439,0,0.002,0.006,0.002,0.003,0.003,0.003,0.006,0.004,0.003
440,0,0.002,0.006,0.002,0.003,0.002,0.003,0.006,0.004,0.003
441,0,0.002,0.006,0.002,0.003,0.002,0.003,0.006,0.004,0.003
442,0,0.002,0.006,0.002,0.003,0.002,0.003,0.006,0.004,0.003
443,0,0.002,0.006,0.002,0.003,0.002,0.003,0.006,0.003,0.003
444,0,0.001,0.006,0.002,0.003,0.002,0.003,0.006,0.003,0.003
445,0,0.002,0.006,0.002,0.003,0.002,0.003,0.006,0.003,0.003
446,0,0.001,0.006,0.001,0.002,0.002,0.003,0.006,0.003,0.003
447,0,0.001,0.006,0.002,0.002,0.002,0.003,0.006,0.003,0.003
448,0,0.001,0.006,0.001,0.002,0.002,0.003,0.006,0.003,0.003
449,0,0.001,0.006,0.001,0.002,0.002,0.003,0.006,0.003,0.002
450,0,0.001,0.006,0.001,0.002,0.002,0.003,0.006,0.003,0.003
451,0,0.001,0.006,0.001,0.002,0.002,0.003,0.005,0.003,0.003
452,0,0.001,0.005,0.001,0.002,0.002,0.003,0.005,0.003,0.003
453,0,0.001,0.005,0.001,0.002,0.002,0.002,0.005,0.003,0.003
454,0,0.001,0.005,0.001,0.002,0.002,0.002,0.005,0.003,0.002
455,0,0.001,0.005,0.001,0.002,0.002,0.002,0.005,0.003,0.002
456,0,0.001,0.005,0.001,0.002,0.002,0.002,0.005,0.003,0.002
457,0,0.001,0.005,0.001,0.002,0.002,0.002,0.005,0.003,0.002
458,0,0.001,0.005,0.001,0.002,0.002,0.002,0.005,0.003,0.002
459,0,0.001,0.005,0.001,0.002,0.002,0.002,0.005,0.003,0.002
460,0,0.001,0.005,0.001,0.002,0.002,0.002,0.005,0.003,0.002
461,0,0.001,0.005,0.001,0.002,0.002,0.002,0.005,0.003,0.002
462,0,0.001,0.005,0.001,0.002,0.002,0.002,0.005,0.003,0.002
463,0,0.001,0.005,0.001,0.002,0.002,0.002,0.005,0.003,0.002
464,0,0.001,0.005,0.001,0.002,0.002,0.002,0.005,0.003,0.002
465,0,0.001,0.005,0.001,0.002,0.002,0.002,0.005,0.003,0.002
466,0,0.001,0.005,0.001,0.002,0.002,0.002,0.005,0.003,0.002
467,0,0.001,0.005,0.001,0.002,0.002,0.002,0.005,0.003,0.002
468,0,0.001,0.005,0.001,0.002,0.002,0.002,0.005,0.003,0.002
469,0,0.001,0.005,0.001,0.002,0.002,0.002,0.005,0.003,0.002
470,0,0.001,0.005,0.001,0.002,0.002,0.002,0.005,0.003,0.002
471,0,0.001,0.005,0.001,0.002,0.002,0.002,0.005,0.003,0.002
472,0,0.001,0.005,0.001,0.002,0.002,0.002,0.005,0.003,0.002
473,0,0.001,0.005,0.001,0.002,0.002,0.002,0.005,0.003,0.002
474,0,0.001,0.005,0.001,0.002,0.002,0.002,0.005,0.002,0.002
475,0,0.001,0.005,0.001,0.002,0.002,0.002,0.005,0.002,0.002
476,0,0.001,0.005,0.001,0.002,0.002,0.002,0.005,0.003,0.002
477,0,0.001,0.005,0.001,0.002,0.002,0.002,0.005,0.002,0.002
478,0,0.001,0.005,0.001,0.002,0.002,0.002,0.004,0.002,0.002
479,0,0.001,0.005,0.001,0.002,0.002,0.002,0.004,0.002,0.002
480,0,0.001,0.005,0.001,0.002,0.002,0.002,0.005,0.002,0.002
481,0,0.001,0.005,0.001,0.002,0.002,0.002,0.004,0.002,0.002
482,0,0.001,0.005,0.001,0.002,0.002,0.002,0.004,0.002,0.002
483,0,0.001,0.005,0.001,0.002,0.002,0.002,0.004,0.002,0.002
484,0,0.001,0.005,0.001,0.002,0.002,0.002,0.004,0.002,0.002
485,0,0.001,0.005,0.001,0.002,0.001,0.002,0.004,0.002,0.002
486,0,0.001,0.005,0.001,0.002,0.001,0.002,0.004,0.002,0.002
487,0,0.001,0.005,0.001,0.002,0.001,0.002,0.004,0.002,0.002
488,0,0.001,0.005,0.001,0.002,0.001,0.002,0.004,0.002,0.001
489,0,0.001,0.004,0.001,0.002,0.001,0.001,0.004,0.002,0.001
490,0,0.001,0.004,0.001,0.002,0.001,0.001,0.004,0.002,0.001
491,0,0.001,0.004,0.001,0.002,0.001,0.001,0.004,0.002,0.001
492,0,0.001,0.004,0.001,0.002,0.001,0.001,0.004,0.002,0.001
493,0,0.001,0.004,0.001,0.002,0.001,0.001,0.004,0.002,0.001
494,0,0.001,0.004,0.001,0.002,0.001,0.001,0.004,0.002,0.001
495,0,0.001,0.004,0.001,0.002,0.001,0.001,0.004,0.002,0.001
496,0,0.001,0.004,0.001,0.002,0.001,0.001,0.004,0.002,0.001
497,0,0.001,0.004,0.001,0.002,0.001,0.001,0.004,0.002,0.001
498,0,0.001,0.004,0.001,0.002,0.001,0.001,0.004,0.002,0.001
499,0,0,0.004,0.001,0.002,0.001,0.001,0.004,0.002,0.001
500,0,0.001,0.004,0.001,0.002,0.001,0.001,0.004,0.002,0.002
501,0,0.001,0.004,0.001,0.002,0.001,0.001,0.004,0.002,0.001
502,0,0.001,0.004,0.001,0.002,0.001,0.001,0.004,0.002,0.001
503,0,0.001,0.004,0.001,0.002,0.001,0.001,0.004,0.002,0.001
504,0,0.001,0.004,0.001,0.002,0.001,0.001,0.004,0.002,0.001
505,0,0.001,0.004,0.001,0.002,0.001,0.001,0.004,0.002,0.001
506,0,0.001,0.004,0.001,0.002,0.001,0.001,0.004,0.002,0.001
507,0,0.001,0.004,0.001,0.002,0.001,0.001,0.004,0.002,0.001
508,0,0.001,0.004,0.001,0.002,0.001,0.001,0.004,0.002,0.001
509,0,0.001,0.004,0.001,0.002,0.001,0.001,0.004,0.002,0.001
510,0,0.001,0.004,0.001,0.002,0.001,0.001,0.004,0.002,0.001
511,0,0.001,0.004,0.001,0.002,0.001,0.001,0.004,0.002,0.001
512,0,0.001,0.004,0.001,0.002,0.001,0.001,0.004,0.002,0.001
513,0,0.001,0.004,0.001,0.002,0.001,0.001,0.004,0.002,0.001
514,0,0.001,0.004,0.001,0.002,0.001,0.001,0.004,0.002,0.001
515,0,0.001,0.004,0.001,0.002,0.001,0.001,0.004,0.002,0.001
516,0,0.001,0.004,0.001,0.002,0.001,0.001,0.004,0.002,0.001
517,0,0.001,0.004,0.001,0.002,0.001,0.001,0.004,0.002,0.001
518,0,0.001,0.004,0.001,0.002,0.001,0.001,0.004,0.002,0.001
519,0,0,0.004,0.001,0.002,0.001,0.001,0.004,0.002,0.001
520,0,0.001,0.004,0.001,0.002,0.001,0.001,0.004,0.002,0.001
521,0,0.001,0.004,0.001,0.002,0.001,0.001,0.004,0.002,0.001
522,0,0.001,0.004,0.001,0.002,0.001,0.001,0.004,0.002,0.001
523,0,0,0.004,0.001,0.002,0.001,0.001,0.004,0.002,0.001
524,0,0,0.004,0,0.001,0.001,0.001,0.003,0.002,0.001
525,0,0,0.004,0,0.001,0.001,0.001,0.004,0.002,0.001
526,0,0,0.004,0.001,0.002,0.001,0.001,0.004,0.002,0.001
527,0,0,0.004,0,0.001,0.001,0.001,0.003,0.002,0.001
528,0,0,0.004,0,0.001,0.001,0.001,0.003,0.002,0.001
529,0,0,0.004,0,0.001,0.001,0.001,0.003,0.002,0.001
530,0,0,0.004,0,0.001,0.001,0.001,0.003,0.002,0.001
531,0,0,0.004,0,0.001,0.001,0.001,0.003,0.002,0.001
532,0,0,0.004,0,0.001,0.001,0.001,0.003,0.002,0.001
533,0,0,0.004,0,0.001,0.001,0.001,0.003,0.001,0.001
534,0,0,0.004,0,0.001,0.001,0.001,0.003,0.002,0.001
535,0,0.001,0.004,0.001,0.002,0.001,0.001,0.004,0.002,0.001
536,0.001,0.001,0.005,0.001,0.002,0.002,0.002,0.004,0.003,0.002
537,0,0,0.004,0.001,0.002,0.001,0.001,0.003,0.002,0.001
538,0,0,0.004,0,0.001,0.001,0.001,0.003,0.001,0.001
539,0,0,0.003,0,0.001,0.001,0.001,0.003,0.001,0.001
540,0,0,0.003,0,0.001,0.001,0.001,0.003,0.001,0.001
541,0,0,0.003,0,0.001,0.001,0.001,0.003,0.001,0.001
542,0,0,0.003,0,0.001,0.001,0.001,0.003,0.001,0.001
543,0,0,0.003,0,0.001,0.001,0.001,0.003,0.001,0.001
544,0,0,0.003,0,0.001,0.001,0.001,0.003,0.001,0.001
545,0,0,0.003,0,0.001,0.001,0.001,0.003,0.001,0.001
546,0,0,0.003,0,0.001,0.001,0.001,0.003,0.001,0.001
547,0,0,0.003,0,0.001,0.001,0.001,0.003,0.001,0.001
548,0,0,0.003,0,0.001,0.001,0.001,0.003,0.001,0.001
549,0,0,0.003,0,0.001,0.001,0.001,0.003,0.001,0.001
550,0,0,0.003,0,0.001,0.001,0.001,0.003,0.001,0.001
551,0,0,0.003,0,0.001,0.001,0.001,0.003,0.001,0.001
552,0,0,0.003,0,0.001,0.001,0.001,0.003,0.001,0.001
553,0,0,0.003,0,0.001,0.001,0.001,0.003,0.001,0.001
554,0,0,0.003,0,0.001,0.001,0.001,0.003,0.001,0.001
555,0,0,0.003,0,0.001,0.001,0.001,0.003,0.001,0.001
556,0,0,0.003,0,0.001,0.001,0.001,0.003,0.001,0.001
557,0,0,0.003,0,0.001,0.001,0.001,0.003,0.001,0.001
558,0,0,0.003,0,0.001,0.001,0.001,0.003,0.001,0.001
559,0,0,0.003,0,0.001,0.001,0.001,0.003,0.001,0.001
560,0,0,0.003,0,0.001,0.001,0.001,0.003,0.001,0.001
561,0,0,0.003,0,0.001,0.001,0.001,0.003,0.001,0.001
562,0,0,0.003,0,0.001,0.001,0.001,0.003,0.001,0.001
563,0,0,0.003,0,0.001,0.001,0.001,0.003,0.001,0.001
564,0,0,0.003,0,0.001,0.001,0.001,0.003,0.001,0.001
565,0,0,0.003,0,0.001,0.001,0.001,0.003,0.001,0.001
566,0,0,0.003,0,0.001,0.001,0.001,0.003,0.001,0.001
567,0,0,0.003,0,0.001,0.001,0.001,0.003,0.001,0.001
568,0,0,0.003,0,0.001,0.001,0.001,0.003,0.001,0.001
569,0,0,0.003,0,0.001,0.001,0.001,0.003,0.001,0.001
570,0,0,0.003,0,0.001,0.001,0.001,0.003,0.001,0.001
571,0,0,0.003,0,0.001,0.001,0.001,0.003,0.001,0.001
572,0,0,0.003,0,0.001,0.001,0.001,0.003,0.001,0.001
573,0,0,0.003,0,0.001,0.001,0.001,0.003,0.001,0.001
574,0,0,0.003,0,0.001,0.001,0.001,0.003,0.001,0.001
575,0,0,0.003,0,0.001,0.001,0.001,0.003,0.001,0.001
576,0,0,0.003,0,0.001,0.001,0.001,0.003,0.001,0.001
577,0,0,0.003,0,0.001,0.001,0.001,0.003,0.001,0.001
578,0,0,0.003,0,0.001,0.001,0.001,0.003,0.001,0.001
579,0,0,0.003,0,0.001,0.001,0.001,0.003,0.001,0.001
580,0,0,0.003,0,0.001,0.001,0.001,0.003,0.001,0.001
581,0,0,0.003,0,0.001,0.001,0.001,0.003,0.001,0.001
582,0,0,0.003,0,0.001,0.001,0.001,0.003,0.001,0.001
583,0,0,0.003,0,0.001,0.001,0.001,0.003,0.001,0.001
584,0,0,0.003,0,0.001,0.001,0.001,0.003,0.001,0.001
585,0,0,0.003,0,0.001,0.001,0.001,0.003,0.001,0.001
586,0,0,0.003,0,0.001,0.001,0.001,0.003,0.001,0.001
587,0,0,0.003,0,0.001,0.001,0.001,0.003,0.001,0.001
588,0,0,0.003,0,0.001,0.001,0.001,0.003,0.001,0.001
589,0,0,0.003,0,0.001,0.001,0.001,0.003,0.001,0.001
590,0,0,0.003,0,0.001,0.001,0.001,0.003,0.001,0.001
591,0,0,0.003,0,0.001,0.001,0.001,0.003,0.001,0.001
592,0,0,0.003,0,0.001,0.001,0,0.003,0.001,0.001
593,0,0,0.003,0,0.001,0.001,0.001,0.003,0.001,0.001
594,0,0,0.003,0,0.001,0.001,0.001,0.003,0.001,0.001
595,0,0,0.003,0,0.001,0.001,0.001,0.003,0.001,0.001
596,0,0,0.003,0,0.001,0.001,0.001,0.003,0.001,0.001
597,0,0,0.003,0,0.001,0.001,0.001,0.003,0.001,0.001
598,0,0,0.003,0,0.001,0.001,0,0.003,0.001,0.001
599,0,0,0.003,0,0.001,0.001,0.001,0.003,0.001,0.001
600,0,0,0.003,0,0.001,0.001,0.001,0.003,0.001,0.001
601,0,0,0.003,0,0.001,0.001,0,0.003,0.001,0.001
602,0,0,0.003,0,0.001,0.001,0,0.003,0.001,0.001
603,0,0,0.003,0,0.001,0.001,0,0.003,0.001,0.001
604,0,0,0.003,0,0.001,0.001,0.001,0.003,0.001,0.001
605,0,0,0.003,0,0.001,0.001,0,0.003,0.001,0
606,0,0,0.003,0,0.001,0.001,0,0.003,0.001,0.001
607,0,0,0.003,0,0.001,0.001,0,0.002,0.001,0.001
608,0,0,0.002,0,0.001,0.001,0,0.002,0.001,0
609,0,0,0.003,0,0.001,0.001,0,0.002,0.001,0
610,0,0,0.003,0,0.001,0.001,0,0.002,0.001,0
611,0,0,0.003,0,0.001,0.001,0,0.003,0.001,0
612,0,0,0.002,0,0.001,0.001,0,0.002,0.001,0
613,0,0,0.002,0,0.001,0.001,0,0.002,0.001,0
614,0,0,0.002,0,0.001,0.001,0,0.002,0.001,0
615,0,0,0.003,0,0.001,0.001,0,0.002,0.001,0
616,0,0,0.003,0,0.001,0.001,0,0.002,0.001,0
617,0,0,0.003,0,0.001,0.001,0.001,0.002,0.001,0
618,0,0,0.002,0,0.001,0.001,0,0.002,0.001,0
619,0,0,0.002,0,0.001,0.001,0,0.002,0.001,0
620,0,0,0.002,0,0.001,0.001,0,0.002,0.001,0
621,0,0,0.002,0,0.001,0.001,0,0.002,0.001,0
622,0,0,0.003,0,0.001,0.001,0,0.002,0.001,0
623,0,0,0.002,0,0.001,0.001,0,0.002,0.001,0
624,0,0,0.002,0,0.001,0.001,0,0.002,0.001,0
625,0,0,0.002,0,0.001,0.001,0,0.002,0.001,0
626,0,0,0.002,0,0.001,0.001,0,0.002,0.001,0
627,0,0,0.002,0,0.001,0.001,0,0.002,0.001,0
628,0,0,0.002,0,0.001,0.001,0,0.002,0.001,0
629,0,0,0.002,0,0.001,0.001,0,0.002,0.001,0
630,0,0,0.002,0,0.001,0.001,0,0.002,0.001,0
631,0,0,0.002,0,0.001,0.001,0,0.002,0.001,0
632,0,0,0.002,0,0.001,0.001,0,0.002,0.001,0
633,0,0,0.002,0,0.001,0.001,0,0.002,0.001,0
634,0,0,0.002,0,0.001,0.001,0,0.002,0.001,0
635,0,0,0.002,0,0.001,0.001,0,0.002,0.001,0
636,0,0,0.002,0,0.001,0.001,0,0.002,0.001,0
637,0,0,0.002,0,0.001,0.001,0,0.002,0.001,0
638,0,0,0.002,0,0.001,0.001,0,0.002,0.001,0
639,0,0,0.002,0,0.001,0.001,0,0.002,0.001,0
640,0,0,0.002,0,0.001,0.001,0,0.002,0.001,0
641,0,0,0.002,0,0.001,0.001,0,0.002,0.001,0
642,0,0,0.002,0,0.001,0.001,0,0.002,0.001,0
643,0,0,0.002,0,0.001,0.001,0,0.002,0.001,0
644,0,0,0.002,0,0.001,0.001,0,0.002,0.001,0
645,0,0,0.002,0,0.001,0.001,0,0.002,0.001,0
646,0,0,0.002,0,0.001,0.001,0,0.002,0.001,0
647,0,0,0.002,0,0.001,0.001,0,0.002,0.001,0
648,0,0,0.002,0,0.001,0.001,0,0.002,0.001,0
649,0,0,0.002,0,0.001,0.001,0,0.002,0.001,0
650,0,0,0.002,0,0.001,0.001,0,0.002,0.001,0
651,0,0,0.002,0,0.001,0.001,0,0.002,0.001,0
652,0,0,0.002,0,0.001,0.001,0,0.002,0.001,0
653,0,0,0.002,0,0.001,0.001,0,0.002,0.001,0
654,0,0,0.002,0,0.001,0.001,0,0.002,0.001,0
655,0,0,0.002,0,0.001,0.001,0,0.002,0.001,0
656,0,0,0.002,0,0.001,0.001,0,0.002,0.001,0
657,0,0,0.002,0,0.001,0.001,0,0.002,0.001,0
658,0,0,0.002,0,0.001,0.001,0,0.002,0.001,0
659,0,0,0.002,0,0.001,0.001,0,0.002,0.001,0
660,0,0,0.002,0,0.001,0.001,0,0.002,0.001,0
661,0,0,0.002,0,0.001,0.001,0,0.002,0.001,0
662,0,0,0.002,0,0.001,0.001,0,0.002,0.001,0
663,0,0,0.002,0,0.001,0.001,0,0.002,0.001,0
664,0,0,0.002,0,0.001,0.001,0,0.002,0.001,0
665,0,0,0.002,0,0.001,0.001,0,0.002,0.001,0
666,0,0,0.002,0,0.001,0.001,0,0.002,0.001,0
667,0,0,0.002,0,0.001,0.001,0,0.002,0.001,0
668,0,0,0.002,0,0.001,0.001,0,0.002,0.001,0
669,0,0,0.002,0,0.001,0.001,0,0.002,0.001,0
670,0,0,0.002,0,0.001,0.001,0,0.002,0.001,0
671,0,0,0.002,0,0.001,0.001,0,0.002,0.001,0
672,0,0,0.002,0,0.001,0.001,0,0.002,0.001,0
673,0,0,0.002,0,0.001,0.001,0,0.002,0.001,0
674,0,0,0.002,0,0.001,0.001,0,0.002,0.001,0
675,0,0,0.002,0,0.001,0.001,0,0.002,0.001,0
676,0,0,0.002,0,0.001,0.001,0,0.002,0.001,0
677,0,0,0.002,0,0.001,0.001,0,0.002,0.001,0
678,0,0,0.002,0,0.001,0.001,0,0.002,0.001,0
679,0,0,0.002,0,0.001,0.001,0,0.002,0.001,0
680,0,0,0.002,0,0.001,0.001,0,0.002,0.001,0
681,0,0,0.002,0,0.001,0.001,0,0.002,0.001,0
682,0,0,0.002,0,0.001,0.001,0,0.002,0.001,0
683,0,0,0.002,0,0.001,0.001,0,0.002,0.001,0
684,0,0,0.002,0,0.001,0.001,0,0.002,0.001,0
685,0,0,0.002,0,0.001,0.001,0,0.002,0.001,0
686,0,0,0.002,0,0.001,0.001,0,0.002,0.001,0
687,0,0,0.002,0,0.001,0.001,0,0.002,0.001,0
688,0,0,0.002,0,0.001,0.001,0,0.002,0.001,0
689,0,0,0.002,0,0.001,0.001,0,0.002,0.001,0
690,0,0,0.002,0,0.001,0.001,0,0.002,0.001,0
691,0,0,0.002,0,0.001,0.001,0,0.002,0.001,0
692,0,0,0.002,0,0.001,0.001,0,0.002,0.001,0
693,0,0,0.002,0,0.001,0.001,0,0.002,0.001,0
694,0,0,0.002,0,0.001,0.001,0,0.002,0.001,0
695,0,0,0.002,0,0.001,0.001,0,0.002,0.001,0
696,0,0,0.002,0,0.001,0.001,0,0.002,0.001,0
697,0,0,0.002,0,0.001,0.001,0,0.002,0.001,0
698,0,0,0.002,0,0.001,0.001,0,0.002,0.001,0
699,0,0,0.002,0,0.001,0.001,0,0.002,0.001,0
700,0,0,0.002,0,0.001,0.001,0,0.002,0.001,0
701,0,0,0.002,0,0.001,0.001,0,0.002,0.001,0
702,0,0,0.002,0,0.001,0.001,0,0.002,0.001,0
703,0,0,0.002,0,0.001,0.001,0,0.002,0.001,0
704,0,0,0.002,0,0.001,0.001,0,0.002,0.001,0
705,0,0,0.002,0,0.001,0.001,0,0.002,0.001,0
706,0,0,0.002,0,0.001,0.001,0,0.002,0.001,0
707,0,0,0.002,0,0.001,0.001,0,0.002,0.001,0
708,0,0,0.002,0,0.001,0.001,0,0.002,0.001,0
709,0,0,0.002,0,0.001,0.001,0,0.002,0.001,0
710,0,0,0.002,0,0.001,0.001,0,0.002,0.001,0
711,0,0,0.002,0,0.001,0.001,0,0.002,0.001,0
712,0,0,0.002,0,0.001,0.001,0,0.002,0.001,0
713,0,0,0.002,0,0.001,0.001,0,0.002,0.001,0
714,0,0,0.002,0,0.001,0.001,0,0.002,0.001,0
715,0,0,0.002,0,0.001,0.001,0,0.002,0.001,0
716,0,0,0.002,0,0.001,0.001,0,0.002,0.001,0
717,0,0,0.002,0,0.001,0.001,0,0.002,0.001,0
718,0,0,0.002,0,0.001,0.001,0,0.002,0.001,0
719,0,0,0.002,0,0.001,0.001,0,0.002,0.001,0
720,0,0,0.002,0,0.001,0.001,0,0.002,0.001,0
721,0,0,0.002,0,0.001,0.001,0,0.002,0.001,0
722,0,0,0.002,0,0.001,0.001,0,0.002,0.001,0
723,0,0,0.002,0,0.001,0.001,0,0.002,0.001,0
724,0,0,0.002,0,0.001,0.001,0,0.002,0.001,0
725,0,0,0.002,0,0.001,0.001,0,0.002,0.001,0
726,0,0,0.002,0,0.001,0.001,0,0.002,0.001,0
727,0,0,0.002,0,0.001,0.001,0,0.002,0.001,0
728,0,0,0.002,0,0.001,0.001,0,0.002,0.001,0
729,0,0,0.002,0,0.001,0.001,0,0.002,0.001,0
730,0,0,0.002,0,0.001,0.001,0,0.002,0.001,0
731,0,0,0.002,0,0.001,0.001,0,0.002,0.001,0
732,0,0,0.002,0,0.001,0.001,0,0.002,0.001,0
733,0,0,0.002,0,0.001,0.001,0,0.002,0.001,0
734,0,0,0.002,0,0.001,0.001,0,0.002,0.001,0
735,0,0,0.002,0,0.001,0.001,0,0.002,0.001,0
736,0,0,0.002,0,0.001,0.001,0,0.002,0.001,0
737,0,0,0.002,0,0.001,0.001,0,0.002,0.001,0
738,0,0,0.002,0,0.001,0.001,0,0.002,0.001,0
739,0,0,0.002,0,0.001,0.001,0,0.002,0.001,0
740,0,0,0.002,0,0.001,0.001,0,0.002,0.001,0
741,0,0,0.002,0,0.001,0.001,0,0.002,0.001,0
742,0,0,0.002,0,0.001,0.001,0,0.002,0.001,0
743,0,0,0.002,0,0.001,0.001,0,0.002,0.001,0
744,0,0,0.002,0,0.001,0.001,0,0.002,0.001,0
745,0,0,0.002,0,0.001,0.001,0,0.002,0.001,0
746,0,0,0.002,0,0.001,0.001,0,0.002,0.001,0
747,0,0,0.002,0,0.001,0,0,0.002,0.001,0
748,0,0,0.002,0,0.001,0.001,0,0.002,0.001,0
749,0,0,0.002,0,0.001,0.001,0,0.002,0.001,0
750,0,0,0.002,0,0.001,0.001,0,0.002,0.001,0
751,0,0,0.002,0,0.001,0.001,0,0.002,0.001,0
752,0,0,0.002,0,0.001,0.001,0,0.002,0.001,0
753,0,0,0.002,0,0.001,0.001,0,0.002,0.001,0
754,0,0,0.002,0,0.001,0.001,0,0.002,0.001,0
755,0,0,0.002,0,0.001,0.001,0,0.002,0.001,0
756,0,0,0.002,0,0.001,0.001,0,0.002,0.001,0
757,0,0,0.002,0,0.001,0.001,0,0.002,0.001,0
758,0,0,0.002,0,0.001,0.001,0,0.002,0.001,0
759,0,0,0.002,0,0.001,0.001,0,0.002,0.001,0
760,0.001,0.001,0.003,0.001,0.002,0.002,0.001,0.003,0.002,0.001
761,0,0,0.002,0,0.001,0.001,0,0.002,0.001,0
762,0,0,0.002,0,0.001,0.001,0,0.002,0.001,0
763,0,0,0.002,0,0.001,0.001,0,0.002,0.001,0
764,0,0,0.002,0,0.001,0.001,0,0.002,0.001,0
765,0,0,0.002,0,0.001,0.001,0,0.002,0.001,0
766,0,0,0.002,0,0.001,0.001,0,0.002,0.001,0
767,0,0,0.002,0,0.001,0.001,0,0.002,0.001,0
768,0,0,0.002,0,0.001,0.001,0,0.002,0.001,0
769,0,0,0.002,0,0.001,0.001,0,0.002,0.001,0
770,0,0,0.002,0,0.001,0.001,0,0.002,0.001,0
771,0,0,0.002,0,0.001,0.001,0,0.002,0.001,0
772,0,0,0.002,0,0.001,0.001,0,0.002,0.001,0
773,0,0,0.002,0,0.001,0.001,0,0.002,0.001,0
774,0,0,0.002,0,0.001,0.001,0,0.002,0.001,0
775,0,0,0.002,0,0.001,0.001,0,0.002,0.001,0
776,0,0,0.002,0,0.001,0.001,0,0.002,0.001,0
777,0,0,0.002,0,0.001,0.001,0,0.002,0.001,0
778,0,0,0.002,0,0.001,0.001,0,0.002,0.001,0
779,0,0,0.002,0,0.001,0.001,0,0.002,0.001,0
780,0,0,0.002,0,0.001,0.001,0,0.002,0.001,0
781,0,0,0.002,0,0.001,0.001,0,0.002,0.001,0
782,0,0,0.002,0,0.001,0.001,0,0.002,0.001,0
783,0,0,0.002,0,0.001,0.001,0,0.002,0.001,0
784,0,0,0.002,0,0.001,0.001,0,0.002,0.001,0
785,0,0,0.002,0,0.001,0.001,0,0.002,0.001,0
786,0,0,0.002,0,0.001,0.001,0,0.002,0.001,0
787,0,0,0.002,0,0.001,0.001,0,0.002,0.001,0
788,0,0,0.002,0,0.001,0.001,0,0.002,0.001,0
789,0,0,0.002,0,0.001,0.001,0,0.002,0.001,0
790,0,0,0.002,0,0.001,0.001,0,0.002,0.001,0
791,0,0,0.002,0,0.001,0.001,0,0.002,0.001,0
792,0,0,0.002,0,0.001,0.001,0,0.002,0.001,0
793,0,0,0.002,0,0.001,0.001,0,0.002,0.001,0
794,0,0,0.002,0,0.001,0.001,0,0.002,0.001,0
795,0,0,0.002,0,0.001,0.001,0,0.002,0.001,0
796,0,0,0.002,0,0.001,0.001,0,0.002,0.001,0
797,0,0,0.002,0,0.001,0.001,0,0.002,0.001,0
798,0,0,0.002,0,0.001,0.001,0,0.002,0.001,0
799,0,0,0.002,0,0.001,0.001,0,0.002,0.001,0
800,0,0,0.002,0,0.001,0.001,0,0.002,0.001,0
801,0,0,0.002,0,0.001,0.001,0,0.002,0.001,0
802,0,0,0.002,0,0.001,0.001,0,0.002,0.001,0
803,0,0,0.002,0,0.001,0.001,0,0.002,0.001,0
804,0,0,0.002,0,0.001,0.001,0,0.002,0.001,0
805,0,0,0.002,0,0.001,0.001,0,0.002,0.001,0
806,0,0,0.002,0,0.001,0.001,0,0.002,0.001,0
807,0,0,0.002,0,0.001,0.001,0,0.002,0.001,0
808,0,0,0.002,0,0.001,0.001,0,0.002,0.001,0
809,0,0,0.002,0,0.001,0.001,0,0.002,0.001,0
810,0,0,0.002,0,0.001,0.001,0,0.002,0.001,0
811,0,0,0.002,0,0.001,0.001,0,0.002,0.001,0
812,0,0,0.002,0,0.001,0.001,0,0.002,0.001,0
813,0,0,0.002,0,0.001,0.001,0,0.002,0.001,0
814,0,0,0.002,0,0.001,0.001,0,0.002,0.001,0
815,0,0,0.002,0,0.001,0.001,0,0.002,0.001,0
816,0,0,0.002,0,0.001,0.001,0,0.002,0.001,0
817,0,0,0.002,0,0.001,0.001,0,0.002,0.001,0
818,0,0,0.002,0,0.001,0.001,0,0.002,0.001,0
819,0,0,0.002,0,0.001,0.001,0,0.002,0.001,0
820,0,0,0.002,0,0.001,0.001,0,0.002,0.001,0
821,0,0,0.002,0,0.001,0.001,0,0.002,0.001,0
822,0,0,0.002,0,0.001,0.001,0,0.002,0.001,0
823,0,0,0.002,0,0.001,0.001,0,0.002,0.001,0
824,0,0,0.002,0,0.001,0.001,0,0.002,0.001,0
825,0,0,0.002,0,0.001,0.001,0,0.002,0.001,0
826,0,0,0.002,0,0.001,0.001,0,0.002,0.001,0
827,0,0,0.002,0,0.001,0.001,0,0.002,0.001,0
828,0,0,0.002,0,0.001,0.001,0,0.002,0.001,0
829,0,0,0.002,0,0.001,0.001,0,0.002,0.001,0
830,0,0,0.002,0,0.001,0.001,0,0.002,0.001,0
831,0,0,0.002,0,0.001,0.001,0,0.002,0.001,0
832,0,0,0.002,0,0.001,0.001,0,0.002,0.001,0
833,0,0,0.002,0,0.001,0.001,0,0.002,0.001,0
834,0,0,0.002,0,0.001,0.001,0,0.002,0.001,0
835,0,0,0.002,0,0.001,0.001,0,0.002,0.001,0
836,0,0,0.002,0,0.001,0.001,0,0.002,0.001,0
837,0,0,0.002,0,0.001,0.001,0,0.002,0.001,0
838,0,0,0.002,0,0.001,0.001,0,0.002,0.001,0
839,0,0,0.002,0,0.001,0.001,0,0.002,0.001,0
840,0,0,0.002,0,0.001,0.001,0,0.002,0.001,0
841,0,0,0.002,0,0.001,0.001,0,0.002,0.001,0
842,0,0,0.002,0,0.001,0.001,0,0.002,0.001,0
843,0,0,0.002,0,0.001,0.001,0,0.002,0.001,0
844,0,0,0.002,0,0.001,0.001,0,0.002,0.001,0
845,0,0,0.002,0,0.001,0.001,0,0.002,0.001,0
846,0,0,0.002,0,0.001,0.001,0,0.002,0.001,0
847,0,0,0.002,0,0.001,0.001,0,0.002,0.001,0
848,0,0,0.002,0,0.001,0.001,0,0.002,0.001,0
849,0,0,0.002,0,0.001,0.001,0,0.002,0.001,0
850,0,0,0.002,0,0.001,0.001,0,0.002,0.001,0
