Wavelength nm.,MilliQ,CC2_16apr25_BOTR1,C50_16apr25_9R1,C50_16apr25_15R1,CC4_16apr25_15R1,CC4_16apr25_01R1,C50_16apr25_01R1,CC2_16apr25_BOTR2,CC4_16apr25_9R1,CC4_16apr25_6R1,CC4_16apr25_BOTR1
190,-0.004,0.445,0.481,0.451,0.426,0.43,0.45,0.424,0.44,0.415,0.493
191,-0.006,0.41,0.443,0.408,0.388,0.39,0.412,0.384,0.403,0.374,0.448
192,-0.005,0.376,0.407,0.373,0.353,0.357,0.379,0.35,0.371,0.342,0.412
193,-0.005,0.337,0.368,0.334,0.317,0.32,0.34,0.314,0.337,0.305,0.374
194,-0.006,0.308,0.34,0.304,0.289,0.29,0.309,0.284,0.311,0.276,0.343
195,-0.006,0.28,0.313,0.276,0.263,0.263,0.28,0.259,0.286,0.25,0.317
196,-0.005,0.256,0.292,0.254,0.242,0.241,0.258,0.239,0.266,0.228,0.296
197,-0.005,0.237,0.272,0.234,0.223,0.222,0.238,0.221,0.248,0.211,0.277
198,-0.005,0.218,0.255,0.218,0.207,0.205,0.221,0.206,0.232,0.195,0.26
199,-0.005,0.203,0.24,0.203,0.192,0.19,0.207,0.193,0.219,0.182,0.246
200,-0.004,0.192,0.228,0.191,0.18,0.179,0.195,0.181,0.209,0.172,0.234
201,-0.004,0.18,0.217,0.18,0.169,0.168,0.183,0.17,0.199,0.162,0.223
202,-0.003,0.171,0.207,0.169,0.159,0.159,0.173,0.16,0.191,0.154,0.214
203,-0.002,0.163,0.199,0.161,0.151,0.152,0.165,0.153,0.184,0.147,0.206
204,-0.002,0.156,0.191,0.153,0.144,0.145,0.157,0.146,0.177,0.141,0.199
205,-0.002,0.149,0.184,0.147,0.138,0.139,0.151,0.14,0.171,0.135,0.193
206,-0.002,0.144,0.178,0.141,0.132,0.134,0.145,0.135,0.165,0.13,0.186
207,-0.002,0.139,0.172,0.137,0.128,0.129,0.141,0.13,0.16,0.126,0.181
208,-0.001,0.134,0.167,0.132,0.124,0.125,0.136,0.126,0.155,0.122,0.175
209,-0.001,0.13,0.162,0.128,0.12,0.121,0.132,0.122,0.15,0.119,0.17
210,-0.001,0.126,0.156,0.124,0.117,0.118,0.128,0.119,0.146,0.115,0.164
211,-0.001,0.123,0.151,0.121,0.114,0.115,0.124,0.116,0.141,0.112,0.159
212,-0.001,0.12,0.147,0.118,0.111,0.112,0.121,0.113,0.137,0.11,0.154
213,-0.001,0.116,0.142,0.114,0.108,0.109,0.117,0.11,0.132,0.107,0.148
214,-0.001,0.113,0.137,0.111,0.105,0.106,0.114,0.107,0.128,0.104,0.143
215,-0.001,0.11,0.133,0.108,0.103,0.104,0.111,0.105,0.124,0.102,0.139
216,-0.001,0.108,0.128,0.106,0.101,0.102,0.108,0.103,0.119,0.1,0.133
217,-0.001,0.105,0.123,0.103,0.098,0.099,0.106,0.1,0.115,0.097,0.128
218,-0.001,0.103,0.119,0.101,0.096,0.097,0.103,0.098,0.112,0.095,0.124
219,-0.001,0.101,0.115,0.099,0.095,0.095,0.101,0.096,0.108,0.093,0.119
220,-0.001,0.099,0.112,0.097,0.093,0.093,0.099,0.094,0.104,0.092,0.115
221,-0.001,0.097,0.108,0.095,0.091,0.091,0.097,0.092,0.101,0.09,0.111
222,-0.001,0.095,0.105,0.093,0.089,0.09,0.095,0.091,0.098,0.088,0.107
223,-0.001,0.093,0.102,0.091,0.087,0.088,0.093,0.089,0.095,0.086,0.103
224,-0.001,0.091,0.098,0.089,0.086,0.086,0.092,0.087,0.092,0.085,0.1
225,-0.001,0.09,0.096,0.087,0.084,0.085,0.09,0.086,0.089,0.083,0.096
226,-0.001,0.088,0.093,0.085,0.083,0.083,0.088,0.084,0.087,0.082,0.093
227,-0.001,0.087,0.09,0.083,0.081,0.082,0.087,0.083,0.084,0.08,0.09
228,-0.001,0.085,0.088,0.082,0.08,0.08,0.086,0.081,0.082,0.079,0.088
229,-0.001,0.084,0.085,0.08,0.078,0.079,0.084,0.08,0.08,0.078,0.085
230,-0.001,0.082,0.083,0.079,0.076,0.077,0.082,0.078,0.078,0.076,0.083
231,-0.001,0.081,0.081,0.077,0.075,0.076,0.081,0.077,0.076,0.075,0.081
232,-0.001,0.079,0.079,0.076,0.074,0.075,0.08,0.075,0.074,0.074,0.079
233,0,0.078,0.077,0.074,0.073,0.073,0.079,0.074,0.073,0.073,0.077
234,0,0.077,0.076,0.073,0.071,0.072,0.077,0.073,0.071,0.072,0.075
235,0,0.075,0.074,0.071,0.07,0.071,0.076,0.072,0.07,0.071,0.073
236,0,0.074,0.073,0.07,0.069,0.07,0.075,0.071,0.069,0.07,0.072
237,0,0.073,0.071,0.069,0.068,0.069,0.074,0.07,0.067,0.069,0.07
238,0,0.072,0.07,0.068,0.067,0.068,0.073,0.068,0.066,0.068,0.069
239,0,0.071,0.069,0.067,0.066,0.067,0.072,0.067,0.065,0.066,0.068
240,0,0.07,0.068,0.066,0.065,0.066,0.071,0.066,0.064,0.066,0.067
241,0,0.069,0.067,0.065,0.064,0.065,0.071,0.065,0.063,0.065,0.066
242,0,0.068,0.066,0.064,0.063,0.064,0.07,0.065,0.062,0.064,0.065
243,0,0.067,0.065,0.063,0.062,0.063,0.069,0.064,0.061,0.063,0.064
244,0,0.066,0.064,0.063,0.062,0.063,0.068,0.063,0.061,0.063,0.063
245,0,0.065,0.063,0.062,0.061,0.062,0.068,0.062,0.06,0.062,0.062
246,0,0.065,0.062,0.061,0.06,0.061,0.067,0.062,0.059,0.061,0.061
247,0,0.064,0.062,0.061,0.06,0.061,0.066,0.061,0.059,0.061,0.061
248,0,0.063,0.061,0.06,0.059,0.06,0.066,0.061,0.058,0.06,0.06
249,0,0.063,0.06,0.06,0.059,0.06,0.065,0.06,0.057,0.059,0.06
250,0,0.062,0.06,0.059,0.058,0.059,0.065,0.059,0.057,0.059,0.059
251,0,0.062,0.059,0.059,0.058,0.059,0.064,0.059,0.056,0.059,0.059
252,0,0.061,0.059,0.058,0.057,0.058,0.063,0.058,0.056,0.058,0.058
253,0,0.061,0.058,0.058,0.057,0.058,0.063,0.058,0.055,0.058,0.057
254,0,0.06,0.058,0.057,0.056,0.057,0.062,0.057,0.055,0.057,0.057
255,0,0.059,0.057,0.057,0.056,0.057,0.061,0.057,0.054,0.057,0.056
256,0,0.059,0.057,0.056,0.055,0.056,0.061,0.056,0.054,0.056,0.056
257,0,0.059,0.056,0.056,0.055,0.056,0.06,0.056,0.053,0.056,0.056
258,0,0.058,0.056,0.056,0.054,0.055,0.06,0.056,0.053,0.055,0.055
259,0,0.058,0.055,0.055,0.054,0.055,0.059,0.055,0.052,0.055,0.055
260,0,0.057,0.055,0.055,0.053,0.054,0.059,0.054,0.052,0.054,0.054
261,0,0.056,0.054,0.054,0.053,0.054,0.058,0.054,0.051,0.054,0.053
262,0,0.056,0.054,0.054,0.052,0.053,0.057,0.054,0.051,0.053,0.053
263,0,0.055,0.053,0.053,0.051,0.053,0.057,0.053,0.051,0.053,0.053
264,0,0.055,0.053,0.053,0.051,0.052,0.056,0.052,0.05,0.052,0.052
265,0,0.054,0.052,0.052,0.05,0.052,0.055,0.052,0.049,0.052,0.052
266,0,0.053,0.051,0.052,0.05,0.051,0.054,0.051,0.049,0.051,0.051
267,0,0.053,0.051,0.051,0.049,0.05,0.053,0.05,0.048,0.05,0.05
268,0,0.052,0.05,0.05,0.048,0.05,0.053,0.05,0.047,0.05,0.05
269,0,0.051,0.049,0.05,0.047,0.049,0.052,0.049,0.047,0.049,0.049
270,0,0.051,0.049,0.049,0.047,0.048,0.051,0.048,0.046,0.048,0.048
271,0,0.05,0.048,0.049,0.046,0.048,0.051,0.048,0.046,0.048,0.048
272,0,0.049,0.047,0.048,0.046,0.047,0.05,0.047,0.045,0.047,0.047
273,0,0.049,0.047,0.047,0.045,0.046,0.049,0.046,0.044,0.046,0.047
274,0,0.048,0.046,0.047,0.044,0.046,0.048,0.046,0.044,0.045,0.046
275,0,0.047,0.045,0.046,0.043,0.045,0.047,0.045,0.043,0.045,0.045
276,0,0.046,0.045,0.045,0.042,0.044,0.046,0.044,0.042,0.044,0.044
277,0,0.045,0.044,0.044,0.042,0.043,0.046,0.043,0.041,0.043,0.044
278,0,0.045,0.043,0.044,0.041,0.042,0.045,0.043,0.041,0.042,0.043
279,0,0.044,0.042,0.043,0.04,0.042,0.044,0.042,0.04,0.042,0.042
280,0,0.043,0.042,0.042,0.04,0.041,0.043,0.041,0.039,0.041,0.041
281,0,0.042,0.041,0.041,0.039,0.04,0.042,0.04,0.038,0.04,0.041
282,0,0.042,0.04,0.041,0.038,0.039,0.042,0.039,0.038,0.039,0.04
283,0,0.041,0.04,0.04,0.037,0.039,0.041,0.039,0.037,0.039,0.039
284,0,0.04,0.039,0.039,0.036,0.038,0.04,0.038,0.036,0.038,0.038
285,0,0.039,0.038,0.038,0.036,0.037,0.039,0.037,0.036,0.037,0.038
286,0,0.038,0.037,0.037,0.035,0.036,0.039,0.036,0.035,0.036,0.037
287,0,0.037,0.036,0.036,0.034,0.035,0.038,0.035,0.034,0.035,0.036
288,0,0.037,0.036,0.036,0.033,0.035,0.037,0.035,0.033,0.035,0.035
289,0,0.036,0.035,0.035,0.033,0.034,0.036,0.034,0.033,0.034,0.035
290,0,0.035,0.034,0.034,0.032,0.033,0.035,0.033,0.032,0.033,0.034
291,0,0.034,0.033,0.033,0.031,0.032,0.034,0.033,0.031,0.032,0.033
292,0,0.034,0.033,0.032,0.031,0.032,0.034,0.032,0.031,0.032,0.032
293,0,0.033,0.032,0.032,0.03,0.031,0.033,0.031,0.03,0.031,0.032
294,0,0.032,0.031,0.031,0.029,0.03,0.032,0.03,0.029,0.03,0.031
295,0,0.031,0.031,0.03,0.028,0.029,0.032,0.03,0.029,0.03,0.03
296,0,0.031,0.03,0.029,0.028,0.029,0.031,0.029,0.028,0.029,0.03
297,0,0.03,0.029,0.029,0.027,0.028,0.03,0.029,0.027,0.028,0.029
298,0,0.03,0.029,0.028,0.027,0.028,0.03,0.028,0.027,0.028,0.029
299,0,0.029,0.028,0.027,0.026,0.027,0.029,0.027,0.026,0.027,0.028
300,0,0.028,0.027,0.027,0.026,0.026,0.028,0.027,0.026,0.027,0.027
301,0,0.028,0.027,0.026,0.025,0.026,0.028,0.026,0.025,0.026,0.027
302,0,0.027,0.026,0.025,0.025,0.025,0.027,0.026,0.025,0.026,0.026
303,0,0.027,0.026,0.025,0.024,0.025,0.026,0.025,0.024,0.025,0.026
304,0,0.026,0.025,0.024,0.023,0.024,0.026,0.024,0.024,0.024,0.025
305,0,0.025,0.025,0.023,0.023,0.024,0.026,0.024,0.023,0.024,0.024
306,0,0.025,0.024,0.023,0.022,0.023,0.025,0.023,0.023,0.023,0.024
307,0,0.025,0.024,0.023,0.022,0.023,0.025,0.023,0.022,0.023,0.023
308,0,0.024,0.023,0.022,0.021,0.022,0.024,0.022,0.022,0.022,0.023
309,0,0.023,0.023,0.021,0.021,0.022,0.023,0.022,0.021,0.022,0.022
310,0,0.023,0.022,0.021,0.02,0.021,0.023,0.022,0.021,0.021,0.022
311,0,0.022,0.022,0.021,0.02,0.021,0.023,0.021,0.021,0.021,0.021
312,0,0.022,0.021,0.02,0.02,0.02,0.022,0.021,0.02,0.021,0.021
313,0,0.021,0.021,0.02,0.02,0.02,0.022,0.021,0.02,0.021,0.021
314,0,0.021,0.021,0.02,0.019,0.02,0.021,0.02,0.02,0.02,0.021
315,0,0.021,0.02,0.019,0.019,0.019,0.021,0.02,0.019,0.02,0.02
316,0,0.02,0.02,0.018,0.018,0.019,0.02,0.019,0.019,0.019,0.019
317,0,0.02,0.019,0.018,0.018,0.018,0.02,0.019,0.018,0.019,0.019
318,0,0.019,0.019,0.018,0.018,0.018,0.02,0.018,0.018,0.018,0.019
319,0,0.019,0.019,0.017,0.017,0.018,0.019,0.018,0.018,0.018,0.019
320,0,0.019,0.019,0.017,0.017,0.017,0.019,0.018,0.018,0.018,0.018
321,0,0.019,0.018,0.017,0.017,0.017,0.019,0.018,0.017,0.018,0.018
322,0,0.018,0.018,0.017,0.016,0.017,0.018,0.017,0.017,0.018,0.018
323,0,0.018,0.017,0.016,0.016,0.017,0.018,0.017,0.016,0.017,0.017
324,0,0.018,0.017,0.016,0.016,0.017,0.018,0.017,0.016,0.017,0.017
325,0,0.018,0.017,0.016,0.016,0.016,0.018,0.017,0.016,0.016,0.017
326,0,0.017,0.017,0.015,0.015,0.016,0.017,0.016,0.016,0.016,0.017
327,0,0.017,0.016,0.015,0.015,0.015,0.016,0.016,0.015,0.016,0.016
328,0,0.016,0.016,0.015,0.015,0.015,0.016,0.015,0.015,0.015,0.016
329,0,0.016,0.016,0.014,0.014,0.015,0.016,0.015,0.015,0.015,0.015
330,0,0.016,0.015,0.014,0.014,0.014,0.016,0.015,0.014,0.015,0.015
331,0,0.015,0.015,0.014,0.014,0.014,0.016,0.015,0.014,0.015,0.015
332,0,0.015,0.015,0.013,0.013,0.014,0.015,0.014,0.014,0.014,0.014
333,0,0.015,0.015,0.013,0.013,0.014,0.015,0.014,0.014,0.014,0.014
334,0,0.015,0.014,0.013,0.013,0.013,0.015,0.014,0.013,0.014,0.014
335,0,0.014,0.014,0.013,0.013,0.013,0.014,0.014,0.013,0.013,0.014
336,0,0.014,0.014,0.012,0.012,0.013,0.014,0.013,0.013,0.013,0.013
337,0,0.014,0.013,0.012,0.012,0.012,0.014,0.013,0.013,0.013,0.013
338,0,0.014,0.013,0.012,0.012,0.012,0.014,0.013,0.013,0.013,0.013
339,0,0.013,0.013,0.012,0.012,0.012,0.014,0.013,0.012,0.013,0.013
340,0.001,0.014,0.014,0.013,0.013,0.014,0.015,0.014,0.014,0.014,0.014
341,0,0.013,0.013,0.012,0.012,0.012,0.013,0.013,0.012,0.012,0.012
342,0,0.013,0.012,0.011,0.011,0.012,0.013,0.012,0.011,0.012,0.012
343,-0.001,0.012,0.012,0.011,0.011,0.011,0.012,0.012,0.011,0.011,0.012
344,0,0.012,0.012,0.011,0.011,0.011,0.012,0.011,0.011,0.011,0.011
345,0,0.012,0.012,0.01,0.01,0.011,0.012,0.011,0.011,0.011,0.011
346,0,0.012,0.011,0.01,0.01,0.011,0.012,0.011,0.01,0.011,0.011
347,0,0.012,0.011,0.01,0.01,0.01,0.012,0.011,0.011,0.011,0.011
348,0,0.011,0.011,0.01,0.01,0.01,0.011,0.01,0.01,0.01,0.011
349,0,0.011,0.011,0.01,0.01,0.01,0.011,0.01,0.01,0.01,0.01
350,0,0.011,0.011,0.01,0.01,0.01,0.011,0.01,0.01,0.011,0.011
351,0,0.01,0.01,0.009,0.009,0.009,0.011,0.01,0.01,0.01,0.01
352,0,0.01,0.01,0.009,0.009,0.009,0.011,0.01,0.009,0.01,0.01
353,0,0.01,0.01,0.009,0.009,0.009,0.011,0.01,0.01,0.01,0.01
354,0,0.01,0.01,0.009,0.009,0.009,0.01,0.009,0.009,0.009,0.009
355,0,0.01,0.01,0.009,0.008,0.009,0.01,0.009,0.009,0.009,0.009
356,0,0.01,0.009,0.008,0.008,0.009,0.01,0.009,0.009,0.009,0.009
357,0,0.009,0.009,0.008,0.008,0.009,0.01,0.009,0.009,0.009,0.009
358,0,0.009,0.009,0.008,0.008,0.008,0.01,0.009,0.009,0.009,0.009
359,0,0.009,0.009,0.008,0.008,0.008,0.009,0.009,0.009,0.009,0.009
360,0,0.009,0.009,0.008,0.008,0.008,0.009,0.008,0.008,0.008,0.009
361,0,0.009,0.009,0.008,0.008,0.008,0.009,0.008,0.008,0.008,0.008
362,0,0.009,0.008,0.007,0.008,0.007,0.009,0.008,0.008,0.008,0.008
363,0,0.008,0.008,0.007,0.007,0.008,0.008,0.008,0.008,0.008,0.008
364,0,0.008,0.008,0.007,0.007,0.007,0.008,0.008,0.008,0.008,0.008
365,0,0.008,0.008,0.007,0.007,0.007,0.009,0.008,0.007,0.008,0.008
366,0,0.008,0.008,0.007,0.007,0.007,0.008,0.008,0.007,0.007,0.008
367,0,0.008,0.008,0.007,0.007,0.007,0.008,0.008,0.007,0.007,0.008
368,0,0.008,0.007,0.007,0.007,0.007,0.008,0.007,0.007,0.007,0.007
369,0,0.007,0.007,0.006,0.007,0.007,0.008,0.007,0.007,0.007,0.007
370,0,0.007,0.007,0.006,0.006,0.006,0.007,0.007,0.007,0.007,0.007
371,0,0.007,0.007,0.006,0.006,0.007,0.008,0.007,0.007,0.007,0.007
372,0,0.007,0.007,0.006,0.006,0.006,0.007,0.006,0.007,0.007,0.007
373,0,0.007,0.007,0.006,0.006,0.006,0.007,0.006,0.006,0.007,0.007
374,0,0.007,0.007,0.006,0.006,0.006,0.007,0.006,0.006,0.006,0.006
375,0,0.007,0.007,0.006,0.006,0.006,0.007,0.006,0.006,0.006,0.006
376,0,0.007,0.007,0.006,0.006,0.006,0.007,0.006,0.006,0.006,0.006
377,0,0.006,0.006,0.006,0.006,0.006,0.007,0.006,0.006,0.006,0.006
378,0,0.006,0.006,0.005,0.005,0.006,0.007,0.006,0.006,0.006,0.006
379,0,0.006,0.006,0.005,0.005,0.006,0.006,0.006,0.006,0.006,0.006
380,0,0.006,0.006,0.005,0.005,0.005,0.006,0.006,0.005,0.006,0.006
381,0,0.006,0.006,0.005,0.005,0.005,0.006,0.005,0.005,0.005,0.005
382,0,0.006,0.006,0.005,0.005,0.005,0.006,0.005,0.005,0.005,0.005
383,0,0.006,0.005,0.005,0.005,0.005,0.006,0.005,0.005,0.005,0.005
384,0,0.006,0.005,0.005,0.005,0.005,0.006,0.005,0.005,0.005,0.005
385,0,0.005,0.005,0.005,0.005,0.005,0.006,0.005,0.005,0.005,0.005
386,0,0.005,0.005,0.005,0.005,0.005,0.006,0.005,0.005,0.005,0.005
387,0,0.005,0.005,0.005,0.005,0.005,0.006,0.005,0.005,0.005,0.005
388,0,0.005,0.005,0.005,0.005,0.005,0.006,0.005,0.005,0.005,0.005
389,0,0.005,0.005,0.004,0.004,0.004,0.005,0.005,0.005,0.005,0.005
390,0,0.005,0.005,0.004,0.004,0.004,0.005,0.005,0.005,0.005,0.005
391,0,0.005,0.005,0.004,0.004,0.004,0.005,0.004,0.004,0.005,0.005
392,0,0.005,0.005,0.004,0.004,0.004,0.005,0.004,0.004,0.004,0.004
393,0,0.005,0.004,0.004,0.004,0.004,0.005,0.004,0.004,0.004,0.004
394,0,0.004,0.004,0.004,0.004,0.004,0.005,0.004,0.004,0.004,0.004
395,0,0.004,0.004,0.004,0.004,0.004,0.005,0.004,0.004,0.004,0.004
396,0,0.004,0.004,0.004,0.004,0.004,0.005,0.004,0.004,0.004,0.004
397,0,0.004,0.004,0.004,0.004,0.004,0.005,0.004,0.004,0.004,0.004
398,0,0.004,0.004,0.004,0.004,0.004,0.004,0.004,0.004,0.004,0.004
399,0,0.004,0.004,0.003,0.003,0.003,0.004,0.004,0.004,0.004,0.004
400,0,0.004,0.004,0.004,0.004,0.004,0.004,0.004,0.004,0.004,0.004
401,0,0.004,0.004,0.003,0.003,0.004,0.004,0.004,0.004,0.004,0.004
402,0,0.004,0.004,0.003,0.003,0.003,0.004,0.004,0.003,0.004,0.004
403,0,0.004,0.004,0.003,0.003,0.003,0.004,0.003,0.003,0.003,0.003
404,0,0.004,0.004,0.003,0.003,0.003,0.004,0.003,0.003,0.003,0.003
405,0,0.004,0.004,0.003,0.003,0.003,0.004,0.003,0.003,0.003,0.003
406,0,0.003,0.004,0.003,0.003,0.003,0.004,0.003,0.003,0.003,0.003
407,0,0.003,0.004,0.003,0.003,0.003,0.004,0.003,0.003,0.003,0.003
408,0,0.003,0.004,0.003,0.003,0.003,0.004,0.003,0.003,0.003,0.003
409,0,0.003,0.003,0.003,0.003,0.003,0.004,0.003,0.003,0.003,0.003
410,0,0.003,0.003,0.003,0.003,0.003,0.004,0.003,0.003,0.003,0.003
411,0,0.003,0.003,0.003,0.003,0.003,0.004,0.003,0.003,0.003,0.003
412,0,0.003,0.003,0.003,0.003,0.003,0.004,0.003,0.003,0.003,0.003
413,0,0.003,0.003,0.003,0.003,0.003,0.003,0.003,0.003,0.003,0.003
414,0,0.003,0.003,0.003,0.003,0.003,0.003,0.003,0.003,0.003,0.003
415,0,0.003,0.003,0.003,0.003,0.003,0.003,0.003,0.003,0.003,0.003
416,0,0.003,0.003,0.003,0.003,0.003,0.003,0.003,0.003,0.003,0.003
417,0,0.003,0.003,0.002,0.002,0.002,0.003,0.003,0.003,0.003,0.003
418,0,0.003,0.003,0.002,0.002,0.002,0.003,0.003,0.002,0.003,0.003
419,0,0.003,0.003,0.002,0.002,0.002,0.003,0.002,0.002,0.003,0.003
420,0,0.003,0.003,0.002,0.002,0.002,0.003,0.003,0.002,0.003,0.003
421,0,0.003,0.003,0.002,0.002,0.002,0.003,0.002,0.002,0.002,0.002
422,0,0.003,0.003,0.002,0.002,0.002,0.003,0.002,0.002,0.002,0.002
423,0,0.003,0.003,0.002,0.002,0.002,0.003,0.002,0.002,0.003,0.002
424,0,0.003,0.003,0.002,0.002,0.002,0.003,0.002,0.002,0.002,0.002
425,0,0.003,0.003,0.002,0.002,0.002,0.003,0.002,0.002,0.002,0.002
426,0,0.002,0.003,0.002,0.002,0.002,0.003,0.002,0.002,0.002,0.002
427,0,0.002,0.003,0.002,0.002,0.002,0.003,0.002,0.002,0.002,0.002
428,0,0.002,0.002,0.002,0.002,0.002,0.003,0.002,0.002,0.002,0.002
429,0,0.002,0.002,0.002,0.002,0.002,0.003,0.002,0.002,0.002,0.002
430,0,0.002,0.002,0.002,0.002,0.002,0.002,0.002,0.002,0.002,0.002
431,0,0.002,0.002,0.002,0.002,0.002,0.002,0.002,0.002,0.002,0.002
432,0,0.002,0.002,0.002,0.002,0.002,0.002,0.002,0.002,0.002,0.002
433,0,0.002,0.002,0.002,0.002,0.002,0.002,0.002,0.002,0.002,0.002
434,0,0.002,0.002,0.002,0.001,0.002,0.002,0.002,0.002,0.002,0.002
435,0,0.002,0.002,0.002,0.001,0.002,0.002,0.002,0.002,0.002,0.002
436,0,0.002,0.002,0.002,0.002,0.002,0.002,0.002,0.002,0.002,0.002
437,0,0.002,0.002,0.002,0.002,0.002,0.002,0.002,0.002,0.002,0.002
438,0,0.002,0.002,0.001,0.001,0.001,0.002,0.002,0.002,0.002,0.002
439,0,0.002,0.002,0.001,0.001,0.001,0.002,0.002,0.002,0.002,0.002
440,0,0.002,0.002,0.001,0.001,0.001,0.002,0.001,0.002,0.002,0.002
441,0,0.002,0.002,0.001,0.001,0.001,0.002,0.001,0.001,0.002,0.001
442,0,0.002,0.002,0.001,0.001,0.001,0.002,0.001,0.002,0.001,0.001
443,0,0.002,0.002,0.001,0.001,0.001,0.002,0.001,0.002,0.001,0.001
444,0,0.001,0.002,0.001,0.001,0.001,0.002,0.001,0.001,0.001,0.001
445,0,0.001,0.002,0.001,0.001,0.001,0.002,0.001,0.001,0.001,0.001
446,0,0.001,0.002,0.001,0.001,0.001,0.002,0.001,0.001,0.001,0.001
447,0,0.001,0.002,0.001,0.001,0.001,0.002,0.001,0.001,0.001,0.001
448,0,0.001,0.002,0.001,0.001,0.001,0.002,0.001,0.001,0.001,0.001
449,0,0.001,0.002,0.001,0.001,0.001,0.002,0.001,0.001,0.001,0.001
450,0,0.001,0.001,0.001,0.001,0.001,0.002,0.001,0.001,0.001,0.001
451,0,0.001,0.001,0.001,0.001,0.001,0.002,0.001,0.001,0.001,0.001
452,0,0.001,0.001,0.001,0.001,0.001,0.002,0.001,0.001,0.001,0.001
453,0,0.001,0.001,0.001,0.001,0.001,0.002,0.001,0.001,0.001,0.001
454,0,0.001,0.002,0.001,0.001,0.001,0.002,0.001,0.001,0.001,0.001
455,0,0.001,0.001,0.001,0.001,0.001,0.002,0.001,0.001,0.001,0.001
456,0,0.001,0.001,0.001,0.001,0.001,0.001,0.001,0.001,0.001,0.001
457,0,0.001,0.001,0.001,0.001,0.001,0.001,0.001,0.001,0.001,0.001
458,0,0.001,0.001,0.001,0.001,0.001,0.001,0.001,0.001,0.001,0.001
459,0,0.001,0.001,0.001,0.001,0.001,0.001,0.001,0.001,0.001,0.001
460,0,0.001,0.001,0.001,0.001,0.001,0.001,0.001,0.001,0.001,0.001
461,0,0.001,0.001,0.001,0.001,0.001,0.001,0.001,0.001,0.001,0.001
462,0,0.001,0.001,0.001,0.001,0.001,0.001,0.001,0.001,0.001,0.001
463,0,0.001,0.001,0.001,0.001,0.001,0.001,0.001,0.001,0.001,0.001
464,0,0.001,0.001,0.001,0.001,0.001,0.001,0.001,0.001,0.001,0.001
465,0,0.001,0.001,0.001,0.001,0.001,0.001,0.001,0.001,0.001,0.001
466,0,0.001,0.001,0.001,0.001,0.001,0.001,0.001,0.001,0.001,0.001
467,0,0.001,0.001,0.001,0.001,0.001,0.001,0.001,0.001,0.001,0.001
468,0,0.001,0.001,0.001,0.001,0.001,0.001,0.001,0.001,0.001,0.001
469,0,0.001,0.001,0.001,0.001,0.001,0.001,0.001,0.001,0.001,0.001
470,0,0.001,0.001,0.001,0.001,0.001,0.001,0.001,0.001,0.001,0.001
471,0,0.001,0.001,0.001,0.001,0,0.001,0.001,0.001,0.001,0.001
472,0,0.001,0.001,0.001,0.001,0.001,0.001,0.001,0.001,0.001,0.001
473,0,0.001,0.001,0.001,0.001,0.001,0.001,0.001,0.001,0.001,0.001
474,0,0.001,0.001,0.001,0.001,0.001,0.001,0.001,0.001,0.001,0.001
475,0,0.001,0.001,0.001,0,0,0.001,0.001,0.001,0.001,0.001
476,0,0.001,0.001,0.001,0,0,0.001,0.001,0.001,0.001,0.001
477,0,0.001,0.001,0,0,0,0.001,0.001,0.001,0.001,0.001
478,0,0.001,0.001,0,0,0,0.001,0,0.001,0.001,0
479,0,0.001,0.001,0,0,0,0.001,0.001,0.001,0.001,0.001
480,0,0.001,0.001,0,0,0,0.001,0.001,0.001,0.001,0.001
481,0,0.001,0.001,0,0,0,0.001,0,0.001,0.001,0.001
482,0,0.001,0.001,0,0,0,0.001,0,0.001,0.001,0
483,0,0,0.001,0,0,0,0.001,0,0.001,0,0
484,0,0,0.001,0,0,0,0.001,0,0.001,0,0
485,0,0,0.001,0,0,0,0.001,0,0.001,0,0
486,0,0,0.001,0,0,0,0.001,0,0.001,0,0
487,0,0,0.001,0,0,0,0.001,0,0,0,0
488,0,0,0.001,0,0,0,0.001,0,0,0,0
489,0,0,0.001,0,0,0,0.001,0,0.001,0,0
490,0,0,0.001,0,0,0,0.001,0,0.001,0,0
491,0,0,0.001,0,0,0,0.001,0,0.001,0,0
492,0,0,0.001,0,0,0,0.001,0,0,0,0
493,0,0,0.001,0,0,0,0.001,0,0,0,0
494,0,0,0.001,0,0,0,0.001,0,0,0,0
495,0,0,0.001,0,0,0,0.001,0,0,0,0
496,0,0,0.001,0,0,0,0.001,0,0,0,0
497,0,0,0.001,0,0,0,0.001,0,0,0,0
498,0,0,0.001,0,0,0,0.001,0,0,0,0
499,0,0,0.001,0,0,0,0.001,0,0,0,0
500,0,0,0.001,0,0,0,0.001,0,0,0,0
501,0,0,0.001,0,0,0,0.001,0,0,0,0
502,0,0,0,0,0,0,0.001,0,0,0,0
503,0,0,0.001,0,0,0,0.001,0,0,0,0
504,0,0,0.001,0,0,0,0.001,0,0,0,0
505,0,0,0,0,0,0,0.001,0,0,0,0
506,0,0,0,0,0,0,0.001,0,0,0,0
507,0,0,0,0,0,0,0.001,0,0,0,0
508,0,0,0,0,0,0,0,0,0,0,0
509,0,0,0,0,0,0,0,0,0,0,0
510,0,0,0,0,0,0,0,0,0,0,0
511,0,0,0,0,0,0,0,0,0,0,0
512,0,0,0,0,0,0,0,0,0,0,0
513,0,0,0,0,0,0,0,0,0,0,0
514,0,0,0,0,0,0,0,0,0,0,0
515,0,0,0,0,0,0,0,0,0,0,0
516,0,0,0,0,0,0,0,0,0,0,0
517,0,0,0,0,0,0,0,0,0,0,0
518,0,0,0,0,0,0,0,0,0,0,0
519,0,0,0,0,0,0,0,0,0,0,0
520,0,0,0,0,0,0,0,0,0,0,0
521,0,0,0,0,0,0,0,0,0,0,0
522,0,0,0,0,0,0,0,0,0,0,0
523,0,0,0,0,0,0,0,0,0,0,0
524,0,0,0,0,0,0,0,0,0,0,0
525,0,0,0,0,0,0,0,0,0,0,0
526,0,0,0,0,0,0,0,0,0,0,0
527,0,0,0,0,0,0,0,0,0,0,0
528,0,0,0,0,0,0,0,0,0,0,0
529,0,0,0,0,0,0,0,0,0,0,0
530,0,0,0,0,0,0,0,0,0,0,0
531,0,0,0,0,0,0,0,0,0,0,0
532,0,0,0,0,0,0,0,0,0,0,0
533,0,0,0,0,0,0,0,0,0,0,0
534,0,0,0,0,0,0,0,0,0,0,0
535,0,0,0,0,0,0,0,0,0,0,0
536,0.001,0.001,0.001,0.001,0.001,0.001,0.001,0.001,0.001,0.001,0.001
537,0,0,0,0,0,0,0,0,0,0,0
538,0,0,0,0,0,0,0,0,0,0,0
539,0,0,0,0,0,0,0,0,0,0,0
540,0,0,0,0,0,0,0,0,0,0,0
541,0,0,0,0,0,0,0,0,0,0,0
542,0,0,0,0,0,0,0,0,0,0,0
543,0,0,0,0,0,0,0,0,0,0,0
544,0,0,0,0,0,0,0,0,0,0,0
545,0,0,0,0,0,0,0,0,0,0,0
546,0,0,0,0,0,0,0,0,0,0,0
547,0,0,0,0,0,-0.001,0,0,0,0,0
548,0,0,0,0,0,0,0,0,0,0,0
549,0,0,0,0,0,0,0,0,0,0,0
550,0,0,0,0,0,0,0,0,0,0,0
551,0,0,0,0,0,0,0,0,0,0,0
552,0,0,0,0,0,0,0,0,0,0,0
553,0,0,0,0,0,0,0,0,0,0,0
554,0,0,0,0,0,0,0,0,0,0,0
555,0,0,0,0,0,0,0,0,0,0,0
556,0,0,0,0,0,-0.001,0,0,0,0,0
557,0,0,0,0,0,0,0,0,0,0,0
558,0,0,0,0,0,0,0,0,0,0,0
559,0,0,0,0,0,0,0,0,0,0,0
560,0,0,0,0,0,0,0,0,0,0,0
561,0,0,0,0,0,0,0,0,0,0,0
562,0,0,0,0,0,0,0,0,0,0,0
563,0,0,0,0,0,0,0,0,0,0,0
564,0,0,0,0,0,0,0,0,0,0,0
565,0,0,0,0,0,0,0,0,0,0,0
566,0,0,0,0,0,0,0,0,0,0,0
567,0,0,0,0,0,0,0,0,0,0,0
568,0,0,0,0,0,0,0,0,0,0,0
569,0,0,0,0,0,0,0,0,0,0,0
570,0,0,0,0,0,0,0,0,0,0,0
571,0,0,0,0,0,0,0,0,0,0,0
572,0,0,0,0,0,0,0,0,0,0,0
573,0,0,0,0,0,0,0,0,0,0,0
574,0,0,0,0,0,0,0,0,0,0,0
575,0,0,0,0,0,0,0,0,0,0,0
576,0,0,0,0,0,0,0,0,0,0,0
577,0,0,0,0,0,0,0,0,0,0,0
578,0,0,0,0,0,0,0,0,0,0,0
579,0,0,0,0,0,0,0,0,0,0,0
580,0,0,0,0,0,0,0,0,0,0,0
581,0,0,0,0,0,0,0,0,0,0,0
582,0,0,0,0,0,0,0,0,0,0,0
583,0,0,0,0,0,0,0,0,0,0,0
584,0,0,0,0,0,0,0,0,0,0,0
585,0,0,0,0,0,0,0,0,0,0,0
586,0,0,0,0,0,0,0,0,0,0,0
587,0,0,0,0,0,0,0,0,0,0,0
588,0,0,0,0,0,0,0,0,0,0,0
589,0,0,0,0,0,-0.001,0,0,0,0,0
590,0,0,0,0,0,-0.001,0,0,0,0,0
591,0,0,0,0,0,0,0,0,0,0,0
592,0,0,0,0,0,0,0,0,0,0,0
593,0,0,0,0,0,0,0,0,0,0,0
594,0,0,0,0,0,0,0,0,0,0,0
595,0,0,0,0,0,0,0,0,0,0,0
596,0,0,0,0,0,0,0,0,0,0,0
597,0,0,0,0,0,0,0,0,0,0,0
598,0,0,0,0,0,0,0,0,0,0,0
599,0,0,0,0,0,0,0,0,0,0,0
600,0,0,0,0,0,0,0,0,0,0,0
601,0,0,0,0,0,0,0,0,0,0,0
602,0,0,0,0,0,-0.001,0,0,0,0,0
603,0,0,0,0,0,-0.001,0,0,0,0,0
604,0,0,0,0,0,-0.001,0,0,0,0,0
605,0,0,0,0,0,-0.001,0,0,0,0,0
606,0,0,0,0,0,-0.001,0,0,0,0,0
607,0,0,0,0,0,-0.001,0,0,0,0,0
608,0,0,0,0,-0.001,-0.001,0,0,0,0,0
609,0,-0.001,0,0,-0.001,-0.001,0,-0.001,0,0,0
610,0,-0.001,0,0,0,-0.001,0,0,0,0,0
611,0,-0.001,0,0,-0.001,-0.001,0,0,0,0,0
612,0,0,0,0,0,-0.001,0,0,0,0,0
613,0,0,0,0,0,-0.001,0,0,0,0,0
614,0,0,0,0,0,-0.001,0,0,0,0,0
615,0,0,0,0,0,-0.001,0,0,0,0,0
616,0,-0.001,0,0,0,-0.001,0,0,0,0,0
617,0,-0.001,0,0,-0.001,-0.001,0,0,0,-0.001,0
618,0,-0.001,0,0,-0.001,-0.001,0,0,0,0,0
619,0,-0.001,0,0,-0.001,-0.001,0,-0.001,0,0,0
620,0,-0.001,0,0,0,-0.001,0,0,0,0,0
621,0,-0.001,0,0,-0.001,-0.001,0,0,0,0,0
622,0,0,0,0,0,-0.001,0,0,0,0,0
623,0,0,0,0,0,-0.001,0,0,0,0,0
624,0,0,0,0,0,-0.001,0,0,0,0,0
625,0,-0.001,0,0,-0.001,-0.001,0,-0.001,0,0,0
626,0,-0.001,0,0,-0.001,-0.001,0,-0.001,0,0,0
627,0,-0.001,0,0,-0.001,-0.001,0,0,0,-0.001,0
628,0,-0.001,0,0,0,-0.001,0,0,0,-0.001,0
629,0,-0.001,0,0,-0.001,-0.001,0,0,0,0,0
630,0,-0.001,0,0,-0.001,-0.001,0,0,0,0,0
631,0,-0.001,0,0,0,-0.001,0,0,0,0,0
632,0,-0.001,0,0,0,-0.001,0,0,0,0,0
633,0,0,0,0,0,-0.001,0,0,0,0,0
634,0,-0.001,0,0,-0.001,-0.001,0,0,0,0,0
635,0,0,0,0,-0.001,-0.001,0,0,0,0,0
636,0,-0.001,0,0,-0.001,-0.001,0,-0.001,0,0,0
637,0,-0.001,0,0,-0.001,-0.001,0,-0.001,0,0,0
638,0,-0.001,0,-0.001,-0.001,-0.001,0,-0.001,0,-0.001,0
639,0,-0.001,0,-0.001,-0.001,-0.001,0,-0.001,0,0,0
640,0,-0.001,0,0,-0.001,-0.001,0,-0.001,0,0,-0.001
641,0,-0.001,0,-0.001,-0.001,-0.001,0,-0.001,0,-0.001,-0.001
642,0,-0.001,0,0,-0.001,-0.001,0,-0.001,0,0,0
643,0,-0.001,0,0,-0.001,-0.001,0,-0.001,0,0,0
644,0,-0.001,0,0,-0.001,-0.001,0,0,0,0,0
645,0,-0.001,0,0,-0.001,-0.001,0,0,0,0,0
646,0,0,0,0,-0.001,-0.001,0,0,0,0,0
647,0,0,0,0,-0.001,-0.001,0,0,0,0,0
648,0,0,0,0,-0.001,-0.001,0,0,0,0,0
649,0,0,0,0,-0.001,0,0,0,0,0,0
650,0,0,0,0,-0.001,-0.001,0,0,0,0,0
651,0,-0.001,0,0,-0.001,-0.001,0,-0.001,0,0,0
652,0,0,0,0,-0.001,-0.001,0,-0.001,0,0,0
653,0,0,0,0,-0.001,-0.001,0,-0.001,0,0,0
654,0,0,0,0,-0.001,-0.001,0,0,0,0,0
655,0,0,0,0,-0.001,-0.001,0,0,0,0,0
656,0,-0.001,0,0,-0.001,-0.001,0,0,0,0,0
657,0,-0.001,0,0,-0.001,-0.001,0,0,0,0,0
658,0,0,0,0,-0.001,-0.001,0,0,0,0,0
659,0,0,0,0,-0.001,-0.001,0,0,0,0,0
660,0,0,0,0,-0.001,-0.001,0,0,0,0,0
661,0,0,0,0,-0.001,0,0,0,0,0,0
662,0,0,0,0,-0.001,0,0,0,0,0,0
663,0,0,0,0,-0.001,-0.001,0,0,0,0,0
664,0,0,0,0,-0.001,-0.001,0,0,0,0,0
665,0,0,0,0,-0.001,-0.001,0,0,0,0,0
666,0,0,0,0,-0.001,-0.001,0,0,0,0,0
667,0,0,0,0,-0.001,-0.001,0,0,0,0,0
668,0,0,0,0,-0.001,-0.001,0,0,0,0,0
669,0,0,0,0,-0.001,-0.001,0,0,0,0,0
670,0,0,0,0,-0.001,0,0,0,0,0,0
671,0,0,0,0,-0.001,-0.001,0,-0.001,0,0,0
672,0,0,0,0,-0.001,0,0,0,0,0,0
673,0,0,0,0,-0.001,0,0,0,0,0,0
674,0,0,0,0,-0.001,0,0,0,0,0,0
675,0,0,0,0,-0.001,0,0,0,0,0,0
676,0,0,0,0,-0.001,-0.001,0,0,0,0,0
677,0,0,0,0,-0.001,-0.001,0,0,0,0,0
678,0,0,0,0,-0.001,-0.001,0,0,0,0,0
679,0,0,0,0,-0.001,-0.001,0,0,0,0,0
680,0,0,0,0,-0.001,-0.001,0,0,0,0,0
681,0,0,0,0,-0.001,-0.001,0,0,0,0,0
682,0,0,0,0,-0.001,-0.001,0,0,0,0,0
683,0,0,0,0,-0.001,-0.001,0,0,0,0,0
684,0,0,0,0,-0.001,0,0,0,0,0,0
685,0,0,0,0,0,0,0,0,0,0,0
686,0,0,0,0,-0.001,0,0,0,0,0,0
687,0,0,0,0,-0.001,-0.001,0,0,0,0,0
688,0,0,0,0,-0.001,-0.001,0,0,0,0,0
689,0,0,0,0,-0.001,0,0,0,0,0,0
690,0,0,0,0,-0.001,0,0,0,0,0,0
691,0,0,0,0,-0.001,0,0,0,0,0,0
692,0,0,0,0,-0.001,-0.001,0,0,0,0,0
693,0,-0.001,0,0,-0.001,-0.001,0,0,0,0,0
694,0,0,0,0,-0.001,-0.001,0,0,0,0,0
695,0,0,0,0,-0.001,-0.001,0,0,0,0,0
696,0,-0.001,0,0,-0.001,-0.001,0,-0.001,0,0,0
697,0,-0.001,0,0,-0.001,-0.001,0,-0.001,0,0,0
698,0,-0.001,0,0,-0.001,-0.001,0,0,0,0,0
699,0,-0.001,0,0,-0.001,-0.001,0,-0.001,0,0,0
700,0,0,0,0,-0.001,-0.001,0,0,0,0,0
701,0,0,0,0,-0.001,-0.001,0,0,0,0,0
702,0,0,0,0,-0.001,-0.001,0,0,0,0,0
703,0,-0.001,0,0,-0.001,-0.001,0,0,0,0,0
704,0,-0.001,0,0,-0.001,-0.001,0,0,0,0,0
705,0,-0.001,0,0,-0.001,-0.001,0,0,0,0,0
706,0,-0.001,0,0,-0.001,-0.001,0,0,0,0,0
707,0,-0.001,0,0,-0.001,-0.001,0,0,0,0,0
708,0,-0.001,0,0,-0.001,-0.001,0,0,0,0,0
709,0,-0.001,0,0,-0.001,-0.001,0,0,0,0,0
710,0,-0.001,0,0,-0.001,-0.001,0,0,0,0,0
711,0,-0.001,0,0,-0.001,-0.001,0,-0.001,0,-0.001,0
712,0,-0.001,0,0,-0.001,-0.001,0,-0.001,0,0,0
713,0,-0.001,0,0,-0.001,-0.001,0,0,0,0,0
714,0,-0.001,0,0,-0.001,-0.001,0,-0.001,0,-0.001,0
715,0,-0.001,0,0,-0.001,-0.001,0,-0.001,0,-0.001,0
716,0,-0.001,0,0,-0.001,-0.001,0,0,0,-0.001,0
717,0,-0.001,0,0,-0.001,-0.001,0,0,0,-0.001,-0.001
718,0,-0.001,0,0,-0.001,-0.001,0,0,0,0,0
719,0,-0.001,0,0,-0.001,-0.001,0,0,0,0,0
720,0,-0.001,0,0,-0.001,-0.001,0,-0.001,0,0,0
721,0,-0.001,0,0,-0.001,-0.001,0,-0.001,0,0,0
722,0,-0.001,0,0,-0.001,-0.001,0,-0.001,0,0,0
723,0,-0.001,0,0,-0.001,-0.001,0,-0.001,0,-0.001,-0.001
724,0,-0.001,0,0,-0.001,-0.001,0,-0.001,0,-0.001,-0.001
725,0,-0.001,0,0,-0.001,-0.001,0,-0.001,0,-0.001,0
726,0,-0.001,0,0,-0.001,-0.001,0,0,0,-0.001,0
727,0,-0.001,0,0,-0.001,-0.001,0,0,0,-0.001,0
728,0,-0.001,0,0,-0.001,-0.001,0,0,0,0,0
729,0,-0.001,0,0,-0.001,-0.001,0,-0.001,0,-0.001,0
730,0,-0.001,0,-0.001,-0.001,-0.001,0,-0.001,0,-0.001,0
731,0,-0.001,0,0,-0.001,-0.001,0,0,0,0,0
732,0,-0.001,0,0,-0.001,-0.001,0,0,0,0,0
733,0,-0.001,0,0,-0.001,-0.001,0,0,0,0,0
734,0,-0.001,0,0,-0.001,-0.001,0,-0.001,0,-0.001,0
735,0,-0.001,0,0,-0.001,-0.001,0,0,0,0,0
736,0,-0.001,0,0,-0.001,-0.001,0,0,0,0,0
737,0,-0.001,0,-0.001,-0.001,-0.001,0,-0.001,0,0,0
738,0,-0.001,0,0,-0.001,-0.001,0,0,0,0,0
739,0,-0.001,0,0,-0.001,-0.001,0,-0.001,0,0,0
740,0,-0.001,0,0,-0.001,-0.001,0,0,0,0,0
741,0,-0.001,0,0,-0.001,-0.001,0,0,0,0,0
742,0,-0.001,0,0,-0.001,-0.001,0,0,0,0,0
743,0,-0.001,0,0,-0.001,-0.001,0,0,0,0,0
744,0,-0.001,0,0,-0.001,-0.001,0,0,0,0,0
745,0,-0.001,0,0,-0.001,-0.001,0,0,0,0,0
746,0,-0.001,0,0,-0.001,-0.001,0,-0.001,0,-0.001,0
747,0,-0.001,0,0,-0.001,-0.001,0,-0.001,0,0,0
748,0,-0.001,0,0,-0.001,-0.001,0,-0.001,0,0,0
749,0,-0.001,0,0,-0.001,-0.001,0,-0.001,0,0,0
750,0,-0.001,0,-0.001,-0.001,-0.001,0,-0.001,0,0,0
751,0,-0.001,0,-0.001,-0.001,-0.001,0,-0.001,0,0,0
752,0,-0.001,0,0,-0.001,-0.001,0,-0.001,0,0,0
753,0,-0.001,0,0,-0.001,-0.001,0,-0.001,0,0,0
754,0,-0.001,0,0,-0.001,-0.001,0,-0.001,0,0,0
755,0,-0.001,0,0,-0.001,-0.001,0,0,0,0,0
756,0,-0.001,0,0,-0.001,-0.001,0,0,0,0,0
757,0,-0.001,0,0,-0.001,-0.001,0,-0.001,0,0,0
758,0,-0.001,0,0,-0.001,-0.001,0,0,0,0,0
759,0,0,0,0,0,0,0,0,0,0,0
760,0.001,0.001,0.001,0.001,0.001,0.001,0.001,0.001,0.001,0.001,0.001
761,0,0,0,0,0,0,0,0,0,0,0
762,0,-0.001,0,-0.001,-0.001,-0.001,-0.001,-0.001,0,0,0
763,0,-0.001,0,-0.001,-0.001,-0.001,0,-0.001,0,0,0
764,0,0,0,-0.001,-0.001,-0.001,-0.001,-0.001,0,0,0
765,0,0,0,-0.001,-0.001,-0.001,-0.001,-0.001,0,0,0
766,0,-0.001,0,-0.001,-0.001,-0.001,-0.001,-0.001,-0.001,-0.001,0
767,0,-0.001,0,-0.001,-0.001,-0.001,0,-0.001,-0.001,-0.001,0
768,0,0,0,-0.001,-0.001,-0.001,0,-0.001,-0.001,0,0
769,0,-0.001,0,-0.001,-0.001,-0.001,0,-0.001,0,-0.001,0
770,0,0,0,-0.001,-0.001,-0.001,0,-0.001,0,-0.001,0
771,0,0,0,-0.001,-0.001,-0.001,0,-0.001,0,-0.001,0
772,0,0,0,-0.001,-0.001,-0.001,0,-0.001,0,-0.001,0
773,0,0,0,-0.001,-0.001,-0.001,0,-0.001,0,-0.001,0
774,0,-0.001,0,-0.001,-0.001,-0.001,0,-0.001,-0.001,-0.001,0
775,0,0,0,-0.001,-0.001,-0.001,0,-0.001,0,0,0
776,0,-0.001,0,-0.001,-0.001,-0.001,-0.001,-0.001,0,-0.001,0
777,0,-0.001,0,-0.001,-0.001,-0.001,-0.001,-0.001,-0.001,-0.001,0
778,0,-0.001,0,-0.001,-0.001,-0.001,-0.001,-0.001,0,0,0
779,0,0,0,-0.001,-0.001,-0.001,0,-0.001,0,0,0
780,0,0,0,-0.001,-0.001,-0.001,0,-0.001,0,0,0
781,0,0,0,0,-0.001,-0.001,0,-0.001,0,0,0
782,0,0,0,-0.001,-0.001,-0.001,0,-0.001,-0.001,0,0
783,0,0,0,-0.001,-0.001,-0.001,0,-0.001,-0.001,0,0
784,0,0,0,-0.001,-0.001,-0.001,0,-0.001,-0.001,0,0
785,0,0,0,-0.001,-0.001,-0.001,0,-0.001,-0.001,0,0
786,0,-0.001,0,0,-0.001,-0.001,0,-0.001,-0.001,0,0
787,0,0,0,-0.001,-0.001,-0.001,-0.001,-0.001,0,0,0
788,0,0,0,0,-0.001,-0.001,0,-0.001,0,0,0
789,0,0,0,-0.001,-0.001,-0.001,0,-0.001,0,0,0
790,0,0,0,-0.001,-0.001,-0.001,0,-0.001,0,0,0
791,0,0,0,0,-0.001,-0.001,0,-0.001,0,0,0
792,0,0,0,0,-0.001,0,0,0,0,0,0
793,0,0,0,0,-0.001,0,0,-0.001,0,0,0
794,0,0,0,-0.001,-0.001,-0.001,0,-0.001,0,0,0
795,0,0,0,-0.001,-0.001,-0.001,0,-0.001,0,0,0
796,0,0,0,0,-0.001,0,0,-0.001,0,0,0
797,0,0,0,0,-0.001,-0.001,0,-0.001,0,0,0
798,0,0,0,-0.001,-0.001,-0.001,0,-0.001,0,0,0
799,0,0,0,0,-0.001,0,0,-0.001,0,0,0
800,0,0,0,0,-0.001,-0.001,0,-0.001,0,0,0
801,0,0,0,0,-0.001,-0.001,0,0,0,0,0
802,0,0,0,0,-0.001,0,0,0,0,0,0
803,0,0,0,0,-0.001,-0.001,0,-0.001,0,0,0
804,0,0,0,0,-0.001,-0.001,0,0,0,0,0
805,0,0,0,0,-0.001,-0.001,0,0,0,0,0
806,0,0,0,0,-0.001,-0.001,0,-0.001,0,0,0
807,0,0,0,-0.001,-0.001,-0.001,0,-0.001,0,0,0
808,0,0,0,0,-0.001,-0.001,0,0,0,0,0
809,0,0,0,0,-0.001,-0.001,0,0,0,0,0
810,0,0,0,0,-0.001,0,0,0,0,0,0
811,0,0,0,0,-0.001,0,0,0,0,0,0
812,0,0,0,0,-0.001,0,0,0,0,0,0
813,0,0,0,0,-0.001,0,0,0,0,0,0
814,0,0,0,0,-0.001,0,0,0,0,0,0
815,0,0,0,0,-0.001,0,0,0,0,0,0
816,0,0,0,0,-0.001,0,0,0,0,0,0
817,0,0,0,0,-0.001,-0.001,0,0,0,0,0
818,0,0,0,0,-0.001,-0.001,0,-0.001,0,0,0
819,0,0,0,0,-0.001,-0.001,0,0,0,0,0
820,0,0,0,0,0,0,0,0,0,0,0
821,0,0,0,0,-0.001,-0.001,0,0,0,0,0
822,0,0,0,0,-0.001,-0.001,0,0,0,0,0
823,0,0,0,0,-0.001,-0.001,0,0,0,0,0
824,0,0,0,0,-0.001,-0.001,0,0,0,0,0
825,0,0,0,0,-0.001,-0.001,0,0,0,0,0
826,0,0,0,0,-0.001,-0.001,0,0,0,0,0
827,0,0,0,0,0,-0.001,0,0,0,0,0
828,0,0,0,0,-0.001,-0.001,0,0,0,0,0
829,0,0,0,0,-0.001,-0.001,0,0,0,0,0
830,0,0,0,0,-0.001,-0.001,0,0,0,0,0
831,0,0,0,0,-0.001,-0.001,0,0,0,0,0
832,0,0,0,0,-0.001,-0.001,0,0,0,0,0
833,0,0,0,0,-0.001,-0.001,0,0,0,0,0
834,0,0,0,0,-0.001,-0.001,0,0,0,0,0
835,0,0,0,0,-0.001,-0.001,0,0,0,0,0
836,0,0,0,0,-0.001,-0.001,0,-0.001,0,0,0
837,0,0,0,0,-0.001,-0.001,0,0,0,0,0
838,0,0,0,0,-0.001,-0.001,0,0,0,0,0
839,0,0,0,0,-0.001,-0.001,0,0,0,0,0
840,0,0,0,0,-0.001,-0.001,0,0,0,0,0
841,0,0,0,0,-0.001,-0.001,0,0,0,0,0
842,0,0,0,0,-0.001,-0.001,0,0,0,0,0
843,0,0,0,0,-0.001,-0.001,0,-0.001,0,-0.001,0
844,0,-0.001,0,0,-0.001,-0.001,0,-0.001,0,0,0
845,0,0,0,0,-0.001,-0.001,0,0,0,0,0
846,0,0,0,0,-0.001,-0.001,0,0,0,0,0
847,0,0,0,0,-0.001,-0.001,0,0,0,0,0
848,0,0,0,0,-0.001,-0.001,0,0,0,0,0
849,0,0,0,0,-0.001,-0.001,0,0,0,0,0
850,0,-0.001,0,0,-0.001,-0.001,0,0,0,0,0
