Wavelength nm.,MilliQ,C50_28oct24_20R2,CP1_11jul24_01R1,C50_28oct24_9R1,CS1_16sep24_01R1,CC2_11jul24_BOTR2,CS2_15aug24_01R2,CS1_11jul24_01R1
190,0.019,0.536,0.375,0.471,0.317,0.399,0.311,0.426
191,0.015,0.502,0.362,0.434,0.303,0.365,0.298,0.41
192,0.013,0.464,0.348,0.399,0.291,0.334,0.287,0.397
193,0.012,0.426,0.335,0.361,0.276,0.302,0.277,0.384
194,0.01,0.396,0.325,0.331,0.264,0.274,0.268,0.372
195,0.01,0.368,0.316,0.304,0.252,0.248,0.26,0.36
196,0.009,0.344,0.309,0.281,0.242,0.228,0.253,0.349
197,0.008,0.322,0.301,0.261,0.233,0.209,0.248,0.339
198,0.008,0.303,0.296,0.244,0.225,0.193,0.242,0.329
199,0.008,0.287,0.291,0.229,0.217,0.179,0.237,0.321
200,0.008,0.274,0.288,0.217,0.211,0.169,0.233,0.313
201,0.007,0.26,0.283,0.205,0.205,0.158,0.228,0.305
202,0.007,0.249,0.279,0.194,0.199,0.149,0.224,0.297
203,0.007,0.24,0.275,0.186,0.194,0.141,0.22,0.291
204,0.007,0.231,0.271,0.178,0.19,0.134,0.216,0.283
205,0.006,0.222,0.267,0.17,0.185,0.128,0.211,0.276
206,0.006,0.215,0.262,0.164,0.18,0.123,0.207,0.269
207,0.006,0.208,0.258,0.159,0.176,0.119,0.203,0.262
208,0.006,0.202,0.252,0.154,0.171,0.115,0.198,0.255
209,0.005,0.195,0.247,0.149,0.166,0.111,0.193,0.248
210,0.005,0.188,0.241,0.144,0.162,0.107,0.188,0.24
211,0.005,0.182,0.236,0.139,0.157,0.104,0.182,0.232
212,0.005,0.176,0.23,0.135,0.152,0.101,0.176,0.224
213,0.005,0.169,0.223,0.131,0.147,0.098,0.17,0.215
214,0.004,0.163,0.217,0.127,0.142,0.095,0.164,0.206
215,0.004,0.156,0.212,0.123,0.137,0.093,0.158,0.198
216,0.004,0.15,0.206,0.119,0.131,0.09,0.151,0.188
217,0.004,0.143,0.201,0.115,0.127,0.088,0.145,0.18
218,0.004,0.138,0.196,0.112,0.122,0.086,0.14,0.172
219,0.004,0.133,0.192,0.109,0.118,0.084,0.134,0.165
220,0.004,0.127,0.188,0.106,0.113,0.082,0.129,0.157
221,0.004,0.122,0.183,0.103,0.109,0.081,0.124,0.151
222,0.004,0.117,0.18,0.101,0.105,0.079,0.12,0.144
223,0.004,0.113,0.176,0.098,0.101,0.077,0.115,0.138
224,0.004,0.109,0.172,0.096,0.098,0.076,0.111,0.131
225,0.004,0.105,0.169,0.094,0.095,0.074,0.107,0.126
226,0.004,0.101,0.166,0.091,0.092,0.073,0.103,0.121
227,0.004,0.097,0.163,0.089,0.089,0.071,0.099,0.116
228,0.003,0.094,0.16,0.087,0.086,0.07,0.096,0.112
229,0.003,0.091,0.157,0.085,0.083,0.069,0.093,0.108
230,0.003,0.088,0.154,0.083,0.081,0.067,0.091,0.104
231,0.003,0.085,0.151,0.081,0.079,0.066,0.088,0.101
232,0.003,0.083,0.149,0.08,0.077,0.065,0.086,0.098
233,0.003,0.08,0.146,0.078,0.075,0.063,0.084,0.096
234,0.003,0.079,0.144,0.077,0.074,0.063,0.082,0.093
235,0.003,0.076,0.141,0.075,0.072,0.061,0.08,0.091
236,0.003,0.075,0.139,0.074,0.071,0.06,0.079,0.089
237,0.003,0.073,0.137,0.073,0.069,0.059,0.077,0.087
238,0.003,0.072,0.135,0.071,0.068,0.058,0.076,0.085
239,0.003,0.07,0.133,0.07,0.067,0.058,0.074,0.083
240,0.003,0.069,0.131,0.069,0.066,0.057,0.073,0.082
241,0.003,0.068,0.129,0.068,0.065,0.056,0.072,0.081
242,0.003,0.067,0.127,0.067,0.064,0.056,0.071,0.08
243,0.002,0.066,0.125,0.067,0.063,0.055,0.07,0.079
244,0.002,0.065,0.123,0.066,0.062,0.054,0.069,0.078
245,0.002,0.064,0.122,0.065,0.061,0.054,0.068,0.077
246,0.002,0.063,0.12,0.064,0.061,0.053,0.067,0.076
247,0.002,0.063,0.118,0.064,0.06,0.053,0.067,0.075
248,0.002,0.062,0.117,0.063,0.059,0.052,0.066,0.074
249,0.002,0.061,0.116,0.062,0.058,0.052,0.065,0.073
250,0.002,0.06,0.115,0.061,0.058,0.051,0.064,0.072
251,0.002,0.06,0.113,0.061,0.057,0.051,0.064,0.072
252,0.002,0.059,0.112,0.06,0.057,0.05,0.063,0.071
253,0.002,0.058,0.112,0.06,0.056,0.05,0.062,0.07
254,0.002,0.058,0.111,0.059,0.056,0.05,0.062,0.07
255,0.002,0.057,0.109,0.059,0.055,0.049,0.061,0.069
256,0.002,0.057,0.108,0.058,0.055,0.049,0.061,0.068
257,0.002,0.056,0.107,0.058,0.054,0.048,0.06,0.068
258,0.002,0.056,0.106,0.057,0.054,0.048,0.059,0.067
259,0.002,0.055,0.105,0.057,0.054,0.048,0.059,0.067
260,0.002,0.055,0.105,0.056,0.053,0.047,0.058,0.066
261,0.002,0.055,0.104,0.056,0.053,0.047,0.058,0.066
262,0.002,0.054,0.102,0.055,0.052,0.046,0.057,0.065
263,0.002,0.053,0.102,0.054,0.052,0.046,0.057,0.064
264,0.002,0.053,0.1,0.054,0.051,0.045,0.056,0.064
265,0.002,0.052,0.099,0.053,0.051,0.045,0.056,0.063
266,0.002,0.052,0.098,0.053,0.05,0.044,0.055,0.063
267,0.002,0.051,0.097,0.052,0.05,0.044,0.054,0.062
268,0.002,0.051,0.096,0.051,0.049,0.043,0.054,0.061
269,0.002,0.05,0.095,0.051,0.049,0.042,0.053,0.061
270,0.002,0.049,0.094,0.05,0.048,0.042,0.053,0.06
271,0.002,0.049,0.093,0.049,0.048,0.041,0.052,0.06
272,0.002,0.048,0.092,0.049,0.047,0.04,0.051,0.059
273,0.002,0.048,0.091,0.048,0.047,0.039,0.051,0.059
274,0.002,0.047,0.09,0.047,0.047,0.039,0.05,0.058
275,0.002,0.046,0.089,0.046,0.046,0.038,0.05,0.057
276,0.002,0.046,0.088,0.046,0.045,0.037,0.049,0.056
277,0.002,0.045,0.087,0.045,0.045,0.036,0.049,0.056
278,0.002,0.044,0.086,0.044,0.044,0.036,0.048,0.055
279,0.001,0.044,0.085,0.043,0.044,0.035,0.047,0.054
280,0.001,0.043,0.084,0.042,0.043,0.034,0.046,0.054
281,0.002,0.042,0.083,0.042,0.043,0.033,0.046,0.053
282,0.002,0.041,0.082,0.041,0.042,0.033,0.045,0.052
283,0.001,0.041,0.081,0.04,0.041,0.032,0.044,0.052
284,0.001,0.04,0.08,0.039,0.041,0.031,0.044,0.051
285,0.002,0.039,0.079,0.039,0.041,0.031,0.043,0.051
286,0.002,0.039,0.078,0.038,0.04,0.03,0.043,0.05
287,0.002,0.038,0.077,0.037,0.039,0.029,0.042,0.049
288,0.001,0.037,0.076,0.036,0.039,0.029,0.042,0.049
289,0.001,0.037,0.074,0.035,0.038,0.028,0.041,0.048
290,0.001,0.036,0.073,0.035,0.038,0.027,0.04,0.047
291,0.001,0.036,0.072,0.034,0.037,0.027,0.04,0.047
292,0.001,0.035,0.071,0.033,0.037,0.026,0.039,0.046
293,0.002,0.034,0.07,0.033,0.036,0.025,0.039,0.046
294,0.001,0.034,0.069,0.032,0.036,0.025,0.038,0.045
295,0.001,0.033,0.068,0.031,0.035,0.024,0.038,0.044
296,0.001,0.033,0.067,0.031,0.035,0.024,0.037,0.043
297,0.001,0.032,0.066,0.03,0.034,0.023,0.036,0.043
298,0.001,0.031,0.065,0.03,0.034,0.023,0.036,0.042
299,0.001,0.031,0.063,0.029,0.033,0.022,0.035,0.042
300,0.001,0.031,0.062,0.028,0.033,0.022,0.035,0.041
301,0.001,0.03,0.061,0.028,0.032,0.021,0.034,0.041
302,0.001,0.03,0.061,0.027,0.032,0.021,0.034,0.04
303,0.001,0.029,0.06,0.027,0.032,0.02,0.033,0.04
304,0.001,0.028,0.059,0.026,0.031,0.02,0.033,0.039
305,0.001,0.028,0.058,0.026,0.031,0.019,0.033,0.038
306,0.001,0.028,0.057,0.025,0.03,0.019,0.032,0.038
307,0.001,0.027,0.056,0.025,0.03,0.019,0.032,0.037
308,0.001,0.027,0.055,0.024,0.029,0.018,0.031,0.037
309,0.001,0.027,0.054,0.024,0.029,0.018,0.031,0.037
310,0.001,0.026,0.053,0.023,0.029,0.018,0.03,0.036
311,0.001,0.026,0.052,0.023,0.028,0.018,0.03,0.036
312,0.001,0.025,0.052,0.022,0.028,0.017,0.03,0.035
313,0.001,0.025,0.051,0.022,0.028,0.017,0.029,0.035
314,0.001,0.025,0.05,0.022,0.027,0.016,0.029,0.034
315,0.001,0.024,0.05,0.021,0.027,0.016,0.028,0.034
316,0.001,0.024,0.049,0.021,0.026,0.016,0.027,0.033
317,0.001,0.023,0.048,0.02,0.026,0.016,0.027,0.033
318,0.001,0.023,0.048,0.02,0.026,0.015,0.027,0.032
319,0.001,0.023,0.047,0.02,0.025,0.015,0.026,0.032
320,0.001,0.022,0.046,0.019,0.025,0.014,0.026,0.031
321,0.001,0.022,0.045,0.019,0.025,0.014,0.025,0.031
322,0.001,0.022,0.044,0.018,0.024,0.014,0.025,0.03
323,0.001,0.021,0.044,0.018,0.024,0.014,0.025,0.03
324,0.001,0.021,0.043,0.018,0.024,0.014,0.024,0.03
325,0.001,0.021,0.043,0.018,0.024,0.013,0.024,0.029
326,0.001,0.021,0.042,0.017,0.023,0.013,0.024,0.029
327,0.001,0.02,0.041,0.017,0.023,0.013,0.023,0.028
328,0.001,0.02,0.041,0.017,0.022,0.013,0.023,0.028
329,0.001,0.02,0.04,0.017,0.022,0.013,0.023,0.028
330,0.001,0.02,0.04,0.016,0.022,0.012,0.022,0.028
331,0.001,0.02,0.039,0.016,0.022,0.012,0.022,0.027
332,0.001,0.019,0.038,0.016,0.021,0.012,0.022,0.027
333,0.001,0.019,0.038,0.015,0.021,0.012,0.022,0.026
334,0.001,0.019,0.037,0.015,0.021,0.012,0.021,0.026
335,0.001,0.019,0.037,0.015,0.021,0.012,0.021,0.026
336,0.001,0.018,0.036,0.015,0.02,0.011,0.021,0.025
337,0.001,0.018,0.035,0.015,0.02,0.011,0.021,0.025
338,0.001,0.018,0.035,0.014,0.02,0.01,0.02,0.025
339,0.001,0.018,0.034,0.014,0.02,0.011,0.02,0.025
340,0.002,0.018,0.035,0.015,0.021,0.012,0.02,0.025
341,0.001,0.017,0.033,0.014,0.019,0.011,0.019,0.024
342,0.001,0.016,0.032,0.013,0.018,0.01,0.018,0.023
343,0.001,0.016,0.032,0.013,0.018,0.01,0.018,0.023
344,0.001,0.016,0.031,0.013,0.018,0.01,0.018,0.022
345,0.001,0.016,0.031,0.013,0.018,0.01,0.018,0.022
346,0.001,0.016,0.03,0.012,0.018,0.009,0.017,0.022
347,0.001,0.015,0.029,0.012,0.017,0.009,0.017,0.021
348,0.001,0.015,0.029,0.012,0.017,0.009,0.017,0.021
349,0.001,0.015,0.029,0.012,0.017,0.009,0.017,0.021
350,0.001,0.015,0.028,0.012,0.017,0.009,0.016,0.021
351,0.001,0.015,0.028,0.011,0.017,0.009,0.016,0.02
352,0.001,0.015,0.027,0.011,0.016,0.008,0.016,0.02
353,0.001,0.014,0.027,0.011,0.016,0.008,0.016,0.02
354,0.001,0.014,0.026,0.011,0.016,0.008,0.015,0.019
355,0.001,0.014,0.026,0.011,0.016,0.008,0.015,0.019
356,0.001,0.014,0.026,0.01,0.015,0.008,0.015,0.019
357,0.001,0.014,0.025,0.01,0.015,0.008,0.015,0.019
358,0.001,0.013,0.025,0.01,0.015,0.008,0.014,0.018
359,0.001,0.013,0.024,0.01,0.015,0.008,0.014,0.018
360,0.001,0.013,0.024,0.01,0.014,0.007,0.014,0.018
361,0.001,0.013,0.023,0.01,0.014,0.007,0.014,0.017
362,0.001,0.013,0.023,0.009,0.014,0.007,0.013,0.017
363,0.001,0.012,0.023,0.009,0.014,0.007,0.013,0.017
364,0.001,0.012,0.022,0.009,0.014,0.007,0.013,0.016
365,0.001,0.012,0.022,0.009,0.013,0.007,0.013,0.016
366,0.001,0.012,0.022,0.009,0.013,0.007,0.012,0.016
367,0.001,0.012,0.021,0.009,0.013,0.007,0.012,0.016
368,0.001,0.012,0.021,0.008,0.013,0.006,0.012,0.015
369,0.001,0.012,0.021,0.009,0.013,0.006,0.011,0.015
370,0.001,0.011,0.02,0.008,0.012,0.006,0.011,0.015
371,0.001,0.011,0.02,0.008,0.012,0.006,0.011,0.015
372,0.001,0.011,0.02,0.008,0.012,0.006,0.011,0.015
373,0.001,0.011,0.019,0.008,0.012,0.006,0.011,0.015
374,0.001,0.011,0.019,0.008,0.012,0.006,0.011,0.014
375,0.001,0.011,0.019,0.008,0.012,0.006,0.011,0.014
376,0.001,0.011,0.019,0.008,0.011,0.006,0.01,0.014
377,0.001,0.01,0.018,0.007,0.011,0.006,0.01,0.014
378,0.001,0.01,0.018,0.007,0.011,0.006,0.01,0.014
379,0.001,0.01,0.018,0.007,0.011,0.006,0.01,0.013
380,0.001,0.01,0.017,0.007,0.011,0.005,0.01,0.013
381,0.001,0.01,0.017,0.007,0.011,0.005,0.01,0.013
382,0.001,0.01,0.017,0.007,0.011,0.005,0.009,0.013
383,0.001,0.01,0.017,0.007,0.01,0.006,0.01,0.013
384,0.001,0.01,0.016,0.007,0.01,0.005,0.009,0.012
385,0.001,0.01,0.016,0.007,0.01,0.005,0.009,0.012
386,0.001,0.01,0.016,0.007,0.01,0.005,0.009,0.012
387,0.001,0.009,0.015,0.006,0.01,0.005,0.009,0.012
388,0.001,0.009,0.015,0.006,0.01,0.005,0.009,0.012
389,0.001,0.009,0.015,0.006,0.01,0.005,0.009,0.012
390,0.001,0.009,0.015,0.006,0.01,0.005,0.008,0.011
391,0.001,0.009,0.015,0.006,0.009,0.005,0.008,0.011
392,0.001,0.009,0.014,0.006,0.009,0.005,0.008,0.011
393,0.001,0.009,0.014,0.006,0.009,0.005,0.008,0.011
394,0.001,0.009,0.014,0.006,0.009,0.005,0.008,0.011
395,0.001,0.009,0.014,0.006,0.009,0.004,0.008,0.01
396,0.001,0.009,0.014,0.006,0.009,0.004,0.008,0.01
397,0.001,0.008,0.013,0.006,0.009,0.004,0.007,0.01
398,0.001,0.008,0.013,0.005,0.009,0.004,0.007,0.01
399,0.001,0.008,0.013,0.005,0.008,0.004,0.007,0.01
400,0.001,0.008,0.013,0.005,0.008,0.004,0.007,0.01
401,0,0.008,0.012,0.005,0.008,0.004,0.007,0.009
402,0.001,0.008,0.012,0.005,0.008,0.004,0.007,0.009
403,0.001,0.008,0.012,0.005,0.008,0.004,0.007,0.009
404,0.001,0.008,0.012,0.005,0.008,0.004,0.007,0.009
405,0.001,0.008,0.012,0.005,0.008,0.004,0.006,0.009
406,0.001,0.008,0.012,0.005,0.008,0.004,0.006,0.009
407,0.001,0.007,0.011,0.005,0.008,0.004,0.006,0.009
408,0.001,0.007,0.011,0.005,0.008,0.004,0.006,0.009
409,0,0.007,0.011,0.005,0.008,0.004,0.006,0.008
410,0,0.007,0.011,0.004,0.007,0.004,0.006,0.008
411,0,0.007,0.011,0.004,0.007,0.004,0.006,0.008
412,0.001,0.007,0.011,0.004,0.007,0.004,0.006,0.008
413,0.001,0.007,0.011,0.004,0.007,0.004,0.006,0.008
414,0.001,0.007,0.01,0.004,0.007,0.003,0.006,0.008
415,0.001,0.007,0.01,0.004,0.007,0.003,0.006,0.008
416,0.001,0.007,0.01,0.004,0.007,0.003,0.006,0.008
417,0,0.007,0.01,0.004,0.007,0.003,0.005,0.007
418,0.001,0.007,0.01,0.004,0.007,0.003,0.005,0.007
419,0,0.006,0.01,0.004,0.007,0.003,0.005,0.007
420,0,0.006,0.009,0.004,0.006,0.003,0.005,0.007
421,0,0.006,0.009,0.004,0.006,0.003,0.005,0.007
422,0,0.006,0.009,0.004,0.006,0.003,0.005,0.007
423,0,0.006,0.009,0.004,0.006,0.003,0.005,0.007
424,0,0.006,0.009,0.004,0.006,0.003,0.005,0.007
425,0,0.006,0.009,0.003,0.006,0.003,0.005,0.006
426,0,0.006,0.009,0.003,0.006,0.003,0.004,0.006
427,0,0.006,0.009,0.003,0.006,0.003,0.005,0.006
428,0,0.006,0.009,0.003,0.006,0.003,0.004,0.006
429,0,0.006,0.008,0.003,0.006,0.002,0.004,0.006
430,0,0.006,0.008,0.003,0.006,0.002,0.004,0.006
431,0,0.006,0.008,0.003,0.006,0.003,0.004,0.006
432,0,0.006,0.008,0.003,0.006,0.003,0.004,0.006
433,0,0.006,0.008,0.003,0.006,0.003,0.004,0.006
434,0,0.006,0.008,0.003,0.006,0.003,0.004,0.006
435,0,0.006,0.008,0.003,0.005,0.002,0.004,0.006
436,0,0.006,0.008,0.003,0.005,0.002,0.004,0.005
437,0,0.006,0.008,0.003,0.005,0.002,0.004,0.005
438,0,0.006,0.008,0.003,0.005,0.002,0.004,0.005
439,0,0.006,0.007,0.003,0.005,0.002,0.004,0.005
440,0,0.005,0.007,0.003,0.005,0.002,0.003,0.005
441,0,0.005,0.007,0.003,0.005,0.002,0.003,0.005
442,0,0.005,0.007,0.003,0.005,0.002,0.003,0.005
443,0,0.005,0.007,0.003,0.005,0.002,0.003,0.005
444,0,0.005,0.007,0.003,0.005,0.002,0.003,0.005
445,0,0.005,0.007,0.003,0.005,0.002,0.003,0.005
446,0,0.005,0.007,0.003,0.005,0.002,0.003,0.005
447,0,0.005,0.007,0.003,0.005,0.002,0.003,0.005
448,0,0.005,0.007,0.002,0.005,0.002,0.003,0.004
449,0,0.005,0.007,0.002,0.005,0.002,0.003,0.004
450,0,0.005,0.007,0.002,0.005,0.002,0.003,0.004
451,0,0.005,0.006,0.002,0.005,0.002,0.003,0.004
452,0,0.005,0.006,0.002,0.005,0.002,0.003,0.004
453,0,0.005,0.006,0.002,0.004,0.002,0.003,0.004
454,0,0.005,0.006,0.002,0.004,0.002,0.003,0.004
455,0,0.005,0.006,0.002,0.004,0.002,0.003,0.004
456,0.001,0.005,0.006,0.002,0.004,0.002,0.003,0.004
457,0,0.005,0.006,0.002,0.004,0.002,0.003,0.004
458,0,0.005,0.006,0.002,0.004,0.002,0.003,0.004
459,0,0.005,0.006,0.002,0.004,0.002,0.003,0.004
460,0.001,0.005,0.006,0.002,0.004,0.002,0.003,0.004
461,0.001,0.005,0.006,0.002,0.004,0.002,0.003,0.004
462,0,0.005,0.006,0.002,0.004,0.002,0.003,0.004
463,0,0.005,0.006,0.002,0.004,0.002,0.003,0.004
464,0,0.005,0.006,0.002,0.004,0.002,0.003,0.004
465,0,0.005,0.006,0.002,0.004,0.002,0.003,0.004
466,0,0.005,0.006,0.002,0.004,0.002,0.003,0.004
467,0,0.005,0.006,0.002,0.004,0.002,0.003,0.004
468,0,0.005,0.006,0.002,0.004,0.002,0.003,0.004
469,0,0.005,0.006,0.002,0.004,0.002,0.003,0.004
470,0.001,0.005,0.005,0.002,0.004,0.002,0.002,0.004
471,0.001,0.005,0.005,0.002,0.004,0.002,0.002,0.004
472,0,0.005,0.005,0.002,0.004,0.002,0.002,0.003
473,0,0.004,0.005,0.002,0.004,0.002,0.002,0.003
474,0,0.004,0.005,0.002,0.004,0.002,0.002,0.003
475,0,0.004,0.005,0.002,0.004,0.002,0.002,0.003
476,0,0.004,0.005,0.002,0.004,0.002,0.002,0.003
477,0,0.004,0.005,0.002,0.004,0.002,0.002,0.003
478,0,0.004,0.005,0.002,0.004,0.002,0.002,0.003
479,0,0.004,0.005,0.002,0.003,0.002,0.002,0.003
480,0,0.004,0.005,0.002,0.003,0.002,0.002,0.003
481,0,0.004,0.005,0.002,0.003,0.002,0.002,0.003
482,0,0.004,0.005,0.002,0.003,0.002,0.002,0.003
483,0,0.004,0.005,0.002,0.003,0.001,0.002,0.003
484,0,0.004,0.005,0.002,0.003,0.001,0.002,0.003
485,0,0.004,0.005,0.002,0.003,0.001,0.002,0.003
486,0,0.004,0.005,0.002,0.003,0.001,0.002,0.003
487,0,0.004,0.005,0.002,0.003,0.001,0.002,0.003
488,0,0.004,0.004,0.001,0.003,0.001,0.002,0.003
489,0,0.004,0.004,0.001,0.003,0.001,0.002,0.003
490,0,0.004,0.004,0.001,0.003,0.001,0.002,0.002
491,0,0.004,0.004,0.001,0.003,0.001,0.002,0.002
492,0,0.004,0.004,0.001,0.003,0.001,0.002,0.002
493,0,0.004,0.004,0.001,0.003,0.001,0.002,0.002
494,0,0.004,0.004,0.001,0.003,0.001,0.002,0.002
495,0,0.004,0.004,0.001,0.003,0.001,0.002,0.002
496,0,0.004,0.004,0.001,0.003,0.001,0.002,0.002
497,0,0.004,0.004,0.001,0.003,0.001,0.002,0.002
498,0,0.004,0.004,0.001,0.003,0.001,0.002,0.002
499,0,0.004,0.004,0.001,0.003,0.001,0.002,0.002
500,0,0.004,0.004,0.001,0.003,0.001,0.002,0.002
501,0,0.004,0.004,0.001,0.003,0.001,0.002,0.002
502,0,0.004,0.004,0.001,0.003,0.001,0.002,0.002
503,0,0.004,0.004,0.001,0.003,0.001,0.001,0.002
504,0,0.004,0.004,0.001,0.003,0.001,0.001,0.002
505,0,0.004,0.004,0.001,0.003,0.001,0.001,0.002
506,0,0.004,0.004,0.001,0.003,0.001,0.002,0.002
507,0,0.004,0.004,0.001,0.003,0.001,0.001,0.002
508,0,0.004,0.004,0.001,0.003,0.001,0.001,0.002
509,0,0.004,0.004,0.001,0.003,0.001,0.001,0.002
510,0,0.004,0.004,0.001,0.003,0.001,0.001,0.002
511,0,0.004,0.004,0.001,0.003,0.001,0.001,0.002
512,0,0.004,0.004,0.001,0.003,0.001,0.001,0.002
513,0,0.003,0.004,0.001,0.003,0.001,0.001,0.002
514,0,0.003,0.004,0.001,0.003,0.001,0.001,0.002
515,0,0.003,0.004,0.001,0.003,0.001,0.001,0.002
516,0,0.003,0.004,0.001,0.003,0.001,0.001,0.002
517,0,0.003,0.004,0.001,0.003,0.001,0.001,0.002
518,0,0.003,0.004,0.001,0.002,0.001,0.001,0.002
519,0,0.003,0.004,0.001,0.002,0.001,0.001,0.002
520,0,0.003,0.004,0.001,0.003,0.001,0.001,0.002
521,0,0.003,0.004,0.001,0.002,0.001,0.001,0.002
522,0,0.003,0.003,0.001,0.002,0.001,0.001,0.002
523,0,0.003,0.003,0.001,0.002,0.001,0.001,0.002
524,0,0.003,0.003,0.001,0.002,0.001,0.001,0.002
525,0,0.003,0.003,0.001,0.002,0.001,0.001,0.002
526,0,0.003,0.003,0.001,0.002,0.001,0.001,0.002
527,0,0.003,0.003,0.001,0.002,0.001,0.001,0.001
528,0,0.003,0.003,0.001,0.002,0.001,0.001,0.001
529,0,0.003,0.003,0.001,0.002,0.001,0.001,0.001
530,0,0.003,0.003,0.001,0.002,0.001,0.001,0.001
531,0,0.003,0.003,0.001,0.002,0.001,0.001,0.001
532,0,0.003,0.003,0.001,0.002,0.001,0.001,0.001
533,0,0.003,0.003,0.001,0.002,0.001,0.001,0.001
534,0,0.003,0.003,0.001,0.002,0.001,0.001,0.001
535,0,0.003,0.003,0.001,0.002,0.001,0.001,0.002
536,0.001,0.004,0.004,0.002,0.003,0.002,0.002,0.002
537,0,0.003,0.003,0.001,0.002,0.001,0.001,0.001
538,0,0.003,0.003,0.001,0.002,0.001,0.001,0.001
539,0,0.003,0.003,0.001,0.002,0.001,0.001,0.001
540,0,0.003,0.003,0.001,0.002,0.001,0.001,0.001
541,0,0.003,0.003,0.001,0.002,0.001,0.001,0.001
542,0,0.003,0.003,0.001,0.002,0.001,0.001,0.001
543,0,0.003,0.003,0.001,0.002,0.001,0.001,0.001
544,0,0.003,0.003,0.001,0.002,0.001,0.001,0.001
545,0,0.003,0.003,0.001,0.002,0.001,0.001,0.001
546,0,0.003,0.003,0.001,0.002,0.001,0.001,0.001
547,0,0.003,0.003,0.001,0.002,0.001,0.001,0.001
548,0,0.003,0.003,0.001,0.002,0.001,0.001,0.001
549,0,0.003,0.003,0.001,0.002,0.001,0.001,0.001
550,0,0.003,0.003,0.001,0.002,0.001,0.001,0.001
551,0,0.003,0.003,0.001,0.002,0.001,0.001,0.001
552,0,0.003,0.003,0.001,0.002,0.001,0.001,0.001
553,0,0.003,0.003,0.001,0.002,0.001,0.001,0.001
554,0,0.003,0.003,0.001,0.002,0.001,0.001,0.001
555,0,0.003,0.003,0.001,0.002,0.001,0.001,0.001
556,0,0.003,0.003,0.001,0.002,0.001,0.001,0.001
557,0,0.003,0.003,0.001,0.002,0.001,0.001,0.001
558,0,0.003,0.003,0.001,0.002,0.001,0.001,0.001
559,0,0.003,0.003,0.001,0.002,0.001,0.001,0.001
560,0,0.003,0.003,0.001,0.002,0.001,0.001,0.001
561,0,0.003,0.003,0.001,0.002,0.001,0.001,0.001
562,0,0.003,0.003,0.001,0.002,0.001,0.001,0.001
563,0,0.003,0.003,0.001,0.002,0.001,0.001,0.001
564,0,0.003,0.003,0.001,0.002,0.001,0.001,0.001
565,0,0.003,0.003,0.001,0.002,0.001,0.001,0.001
566,0,0.003,0.003,0.001,0.002,0.001,0.001,0.001
567,0,0.003,0.003,0.001,0.002,0.001,0.001,0.001
568,0,0.003,0.003,0.001,0.002,0.001,0.001,0.001
569,0,0.003,0.003,0.001,0.002,0.001,0.001,0.001
570,0,0.003,0.003,0.001,0.002,0.001,0.001,0.001
571,0,0.003,0.003,0.001,0.002,0.001,0.001,0.001
572,0,0.003,0.003,0.001,0.002,0.001,0.001,0.001
573,0,0.003,0.003,0.001,0.002,0.001,0.001,0.001
574,0,0.003,0.003,0.001,0.002,0.001,0.001,0.001
575,0,0.003,0.003,0.001,0.002,0.001,0.001,0.001
576,0,0.003,0.003,0.001,0.002,0.001,0.001,0.001
577,0,0.003,0.003,0.001,0.002,0.001,0.001,0.001
578,0,0.003,0.003,0.001,0.002,0.001,0.001,0.001
579,0,0.003,0.003,0.001,0.002,0.001,0.001,0.001
580,0,0.003,0.003,0.001,0.002,0.001,0.001,0.001
581,0,0.003,0.003,0.001,0.002,0.001,0.001,0.001
582,0,0.003,0.003,0.001,0.002,0.001,0.001,0.001
583,0,0.003,0.003,0.001,0.002,0.001,0.001,0.001
584,0,0.003,0.002,0.001,0.002,0.001,0.001,0.001
585,0,0.003,0.002,0.001,0.002,0.001,0.001,0.001
586,0,0.003,0.002,0.001,0.002,0.001,0.001,0.001
587,0,0.003,0.002,0.001,0.002,0.001,0.001,0.001
588,0,0.003,0.003,0.001,0.002,0.001,0.001,0.001
589,0,0.003,0.002,0.001,0.002,0.001,0.001,0.001
590,0,0.003,0.002,0.001,0.002,0.001,0.001,0.001
591,0,0.003,0.002,0.001,0.002,0.001,0.001,0.001
592,0,0.003,0.002,0.001,0.002,0.001,0.001,0.001
593,0,0.003,0.002,0.001,0.002,0.001,0.001,0.001
594,0,0.003,0.002,0.001,0.002,0.001,0.001,0.001
595,0,0.002,0.002,0.001,0.002,0.001,0.001,0.001
596,0,0.003,0.002,0.001,0.002,0.001,0.001,0.001
597,0,0.003,0.002,0.001,0.002,0.001,0.001,0.001
598,0,0.002,0.002,0.001,0.002,0.001,0.001,0.001
599,0,0.003,0.002,0.001,0.002,0.001,0.001,0.001
600,0,0.002,0.002,0.001,0.002,0.001,0.001,0.001
601,0,0.003,0.002,0.001,0.002,0,0.001,0.001
602,0,0.003,0.002,0.001,0.002,0,0.001,0.001
603,0,0.002,0.002,0.001,0.002,0,0.001,0.001
604,0,0.002,0.002,0.001,0.002,0,0.001,0.001
605,0,0.002,0.002,0,0.002,0,0,0
606,0,0.002,0.002,0,0.002,0,0.001,0.001
607,0,0.002,0.002,0.001,0.001,0,0.001,0
608,0,0.002,0.002,0,0.001,0,0.001,0
609,0,0.002,0.002,0,0.002,0,0.001,0
610,0,0.002,0.002,0,0.001,0,0,0
611,0,0.002,0.002,0,0.001,0,0,0
612,0,0.002,0.002,0,0.001,0,0,0
613,0,0.002,0.002,0,0.002,0,0,0
614,0,0.002,0.002,0,0.001,0,0,0
615,0,0.002,0.002,0,0.001,0,0,0
616,0,0.002,0.002,0,0.001,0,0,0
617,0,0.002,0.002,0,0.001,0,0,0
618,0,0.002,0.002,0,0.001,0,0.001,0
619,0,0.002,0.002,0,0.001,0,0,0
620,0,0.002,0.002,0.001,0.001,0,0,0
621,0,0.002,0.002,0.001,0.001,0,0,0
622,0,0.002,0.002,0.001,0.001,0,0,0
623,0,0.002,0.002,0,0.001,0,0,0
624,0,0.002,0.002,0.001,0.001,0,0,0
625,0,0.002,0.002,0,0.001,0,0,0
626,0,0.002,0.002,0,0.001,0,0,0
627,0,0.002,0.002,0,0.001,0,0,0
628,0,0.002,0.002,0,0.001,0,0,0
629,0,0.002,0.002,0,0.001,0,0,0
630,0,0.002,0.002,0,0.001,0,0,0
631,0,0.002,0.002,0,0.001,0,0,0
632,0,0.002,0.002,0,0.001,0,0,0
633,0,0.002,0.002,0,0.001,0,0,0
634,0,0.002,0.002,0,0.001,0,0,0
635,0,0.002,0.002,0,0.001,0,0,0
636,0,0.002,0.002,0,0.001,0,0,0
637,0,0.002,0.002,0,0.001,0,0,0
638,0,0.002,0.002,0,0.001,0,0,0
639,0,0.002,0.002,0,0.001,0,0,0
640,0,0.002,0.002,0,0.001,0,0,0
641,0,0.002,0.002,0,0.001,0,0,0
642,0,0.002,0.002,0,0.001,0,0,0
643,0,0.002,0.002,0,0.001,0,0,0
644,0,0.002,0.002,0,0.001,0,0,0
645,0,0.002,0.002,0,0.001,0,0,0
646,0,0.002,0.002,0,0.001,0,0,0
647,0,0.002,0.002,0,0.001,0,0,0
648,0,0.002,0.002,0,0.001,0,0,0
649,0,0.002,0.002,0,0.001,0,0,0
650,0,0.002,0.002,0,0.001,0,0,0
651,0,0.002,0.002,0,0.001,0,0,0
652,0,0.002,0.002,0,0.001,0,0,0
653,0,0.002,0.002,0,0.001,0,0,0
654,0,0.002,0.002,0,0.001,0,0,0
655,0,0.002,0.002,0,0.001,0,0,0
656,0,0.002,0.001,0,0.001,0,0,0
657,0,0.002,0.001,0,0.001,0,0,0
658,0,0.002,0.001,0,0.001,0,0,0
659,0,0.002,0.002,0,0.001,0,0,0
660,0,0.002,0.001,0,0.001,0,0,0
661,0,0.002,0.001,0,0.001,0,0,0
662,0,0.002,0.001,0,0.001,0,0,0
663,0,0.002,0.001,0,0.001,0,0,0
664,0,0.002,0.001,0,0.001,0,0,0
665,0,0.002,0.001,0,0.001,0,0,0
666,0,0.002,0.001,0,0.001,0,0,0
667,0,0.002,0.001,0,0.001,0,0,0
668,0,0.002,0.001,0,0.001,0,0,0
669,0,0.002,0.001,0,0.001,0,0,0
670,0,0.002,0.001,0,0.001,0,0,0
671,0,0.002,0.001,0,0.001,0,0,0
672,0,0.002,0.001,0,0.001,0,0,0
673,0,0.002,0.001,0,0.001,0,0,0
674,0,0.002,0.001,0,0.001,0,0,0
675,0,0.002,0.001,0,0.001,0,0,0
676,0,0.002,0.001,0,0.001,0,0,0
677,0,0.002,0.001,0,0.001,0,0,0
678,0,0.002,0.001,0,0.001,0,0,0
679,0,0.002,0.001,0,0.001,0,0,0
680,0,0.002,0.001,0,0.001,0,0,0
681,0,0.002,0.001,0,0.001,0,0,0
682,0,0.002,0.001,0,0.001,0,0,0
683,0,0.002,0.001,0,0.001,0,0,0
684,0,0.002,0.001,0,0.001,0,0,0
685,0,0.002,0.001,0,0.001,0,0,0
686,0,0.002,0.001,0,0.001,0,0,0
687,0,0.002,0.001,0,0.001,0,0,0
688,0,0.002,0.001,0,0.001,0,0,0
689,0,0.002,0.001,0,0.001,0,0,0
690,0,0.002,0.001,0,0.001,0,0,0
691,0,0.002,0.001,0,0.001,0,0,0
692,0,0.002,0.001,0,0.001,0,0,0
693,0,0.002,0.001,0,0.001,0,0,0
694,0,0.002,0.001,0,0.001,0,0,0
695,0,0.002,0.001,0,0.001,0,0,0
696,0,0.002,0.001,0,0.001,0,0,0
697,0,0.002,0.001,0,0.001,0,0,0
698,0,0.002,0.001,0,0.001,0,0,0
699,0,0.002,0.001,0,0.001,0,0,0
700,0,0.002,0.001,0,0.001,0,0,0
701,0,0.002,0.001,0,0.001,0,0,0
702,0,0.002,0.001,0,0.001,0,0,0
703,0,0.002,0.001,0,0.001,0,0,0
704,0,0.002,0.001,0,0.001,0,0,0
705,0,0.002,0.001,0,0.001,0,0,0
706,0,0.002,0.001,0,0.001,0,0,0
707,0,0.002,0.001,0,0.001,0,0,0
708,0,0.002,0.001,0,0.001,0,0,0
709,0,0.002,0.001,0,0.001,0,0,0
710,0,0.002,0.001,0,0.001,0,0,0
711,0,0.002,0.001,0,0.001,0,0,0
712,0,0.002,0.001,0,0.001,0,0,0
713,0,0.002,0.001,0,0.001,0,0,0
714,0,0.002,0.001,0,0.001,0,0,0
715,0,0.002,0.001,0,0.001,0,0,0
716,0,0.002,0.001,0,0.001,0,0,0
717,0,0.002,0.001,0,0.001,0,0,0
718,0,0.002,0.001,0,0.001,0,0,0
719,0,0.002,0.001,0,0.001,0,0,0
720,0,0.002,0.001,0,0.001,0,0,0
721,0,0.002,0.001,0,0.001,0,0,0
722,0,0.002,0.001,0,0.001,0,0,0
723,0,0.002,0.001,0,0.001,0,0,0
724,0,0.002,0.001,0,0.001,0,0,0
725,0,0.002,0.001,0,0.001,0,0,0
726,0,0.002,0.001,0,0.001,0,0,0
727,0,0.002,0.001,0,0.001,0,0,0
728,0,0.002,0.001,0,0.001,0,0,0
729,0,0.002,0.001,0,0.001,0,0,0
730,0,0.002,0.001,0,0.001,0,0,0
731,0,0.002,0.001,0,0.001,0,0,0
732,0,0.002,0.001,0,0.001,0,0,0
733,0,0.002,0.001,0,0.001,0,0,0
734,0,0.002,0.001,0,0.001,0,0,0
735,0,0.002,0.001,0,0.001,0,0,0
736,0,0.002,0.001,0,0.001,0,0,0
737,0,0.002,0.001,0,0.001,0,0,0
738,0,0.002,0.001,0,0.001,0,0,0
739,0,0.002,0.001,0,0.001,0,0,0
740,0,0.002,0.001,0,0.001,0,0,0
741,0,0.002,0.001,0,0.001,0,0,0
742,0,0.002,0.001,0,0.001,0,0,0
743,0,0.002,0.001,0,0.001,0,0,0
744,0,0.002,0.001,0,0.001,0,0,0
745,0,0.002,0.001,0,0.001,0,0,0
746,0,0.002,0.001,0,0.001,0,0,0
747,0,0.002,0.001,0,0.001,0,0,0
748,0,0.002,0.001,0,0.001,0,0,0
749,0,0.002,0.001,0,0.001,0,0,0
750,0,0.002,0.001,0,0.001,0,0,0
751,0,0.002,0.001,0,0.001,0,0,0
752,0,0.002,0.001,0,0.001,0,0,0
753,0,0.002,0.001,0,0.001,0,0,0
754,0,0.002,0.001,0,0.001,0,0,0
755,0,0.002,0.001,0,0.001,0,0,0
756,0,0.002,0.001,0,0.001,0,0,0
757,0,0.002,0.001,0,0.001,0,0,0
758,0,0.002,0.001,0,0.001,0,0,0
759,0,0.002,0.001,0,0.001,0,0,0
760,0.001,0.003,0.002,0.001,0.002,0.001,0.001,0.001
761,0,0.002,0.001,0,0.001,0,0,0
762,0,0.002,0.001,0,0.001,0,0,0
763,0,0.002,0.001,0,0.001,0,0,0
764,0,0.002,0.001,0,0.001,0,0,0
765,0,0.002,0.001,0,0.001,0,0,0
766,0,0.002,0.001,0,0.001,0,0,0
767,0,0.002,0.001,0,0.001,0,0,0
768,0,0.002,0.001,0,0.001,0,0,0
769,0,0.002,0.001,0,0.001,0,0,0
770,0,0.002,0.001,0,0.001,0,0,0
771,0,0.002,0.001,0,0.001,0,0,0
772,0,0.002,0.001,0,0.001,0,0,0
773,0,0.002,0.001,0,0.001,0,0,0
774,0,0.002,0.001,0,0,0,0,0
775,0,0.002,0.001,0,0,0,0,0
776,0,0.002,0.001,0,0,0,0,0
777,0,0.002,0.001,0,0.001,0,0,0
778,0,0.002,0.001,0,0.001,0,0,0
779,0,0.002,0.001,0,0,0,0,0
780,0,0.002,0.001,0,0,0,0,0
781,0,0.002,0.001,0,0,0,0,0
782,0,0.002,0.001,0,0.001,0,0,0
783,0,0.002,0.001,0,0.001,0,0,0
784,0,0.002,0.001,0,0.001,0,0,0
785,0,0.002,0.001,0,0.001,0,0,0
786,0,0.002,0.001,0,0.001,0,0,0
787,0,0.002,0.001,0,0.001,0,0,0
788,0,0.002,0.001,0,0.001,0,0,0
789,0,0.002,0.001,0,0.001,0,0,0
790,0,0.002,0.001,0,0.001,0,0,0
791,0,0.002,0.001,0,0.001,0,0,0
792,0,0.002,0.001,0,0.001,0,0,0
793,0,0.002,0.001,0,0.001,0,0,0
794,0,0.002,0.001,0,0,0,0,0
795,0,0.002,0.001,0,0,0,0,0
796,0,0.002,0.001,0,0.001,0,0,0
797,0,0.002,0.001,0,0,0,0,0
798,0,0.002,0.001,0,0,0,0,0
799,0,0.002,0.001,0,0.001,0,0,0
800,0,0.002,0.001,0,0,0,0,0
801,0,0.002,0.001,0,0,0,0,0
802,0,0.002,0.001,0,0,0,0,0
803,0,0.002,0.001,0,0.001,0,0,0
804,0,0.002,0.001,0,0.001,0,0,0
805,0,0.002,0.001,0,0,0,0,0
806,0,0.002,0.001,0,0.001,0,0,0
807,0,0.002,0.001,0,0.001,0,0,0
808,0,0.002,0.001,0,0.001,0,0,0
809,0,0.002,0.001,0,0.001,0,0,0
810,0,0.002,0.001,0,0.001,0,0,0
811,0,0.002,0.001,0,0,0,0,0
812,0,0.002,0.001,0,0,0,0,0
813,0,0.002,0.001,0,0.001,0,0,0
814,0,0.002,0.001,0,0.001,0,0,0
815,0,0.002,0.001,0,0.001,0,0,0
816,0,0.002,0.001,0,0.001,0,0,0
817,0,0.002,0.001,0,0,0,0,0
818,0,0.002,0.001,0,0,0,0,0
819,0,0.002,0.001,0,0.001,0,0,0
820,0,0.002,0.001,0,0,0,0,0
821,0,0.002,0.001,0,0,0,0,0
822,0,0.002,0.001,0,0,0,0,0
823,0,0.002,0.001,0,0,0,0,0
824,0,0.001,0.001,0,0,0,0,0
825,0,0.001,0.001,0,0,0,0,0
826,0,0.001,0.001,0,0,0,0,0
827,0,0.002,0.001,0,0.001,0,0,0
828,0,0.002,0.001,0,0.001,0,0,0
829,0,0.002,0.001,0,0,0,0,0
830,0,0.001,0.001,0,0,0,0,0
831,0,0.001,0.001,0,0,0,0,0
832,0,0.001,0.001,0,0,0,0,0
833,0,0.001,0.001,0,0,0,0,0
834,0,0.001,0.001,0,0,0,0,0
835,0,0.001,0.001,0,0,0,0,0
836,0,0.001,0.001,0,0,0,0,0
837,0,0.001,0.001,0,0,0,0,0
838,0,0.001,0.001,0,0,0,0,0
839,0,0.001,0.001,0,0,0,0,0
840,0,0.001,0.001,0,0,0,0,0
841,0,0.001,0.001,0,0,0,0,0
842,0,0.001,0.001,0,0,0,0,0
843,0,0.001,0.001,0,0,0,0,0
844,0,0.001,0.001,0,0,0,0,0
845,0,0.001,0.001,0,0,0,0,0
846,0,0.001,0.001,0,0,0,0,0
847,0,0.001,0.001,0,0,0,0,0
848,0,0.001,0.001,0,0,0,0,0
849,0,0.001,0.001,0,0,0,0,0
850,0,0.001,0.001,0,0,0,0,0
