Wavelength nm.	RawData ...	RawData ...	RawData ...	RawData ...	RawData ...	RawData ...	RawData ...	RawData ...	RawData ...	RawData ...	RawData ...	RawData ...	RawData ...	RawData ...	RawData ...	RawData ...
190.00	0.005	0.402	0.395	0.372	0.427	0.396	0.432	0.410	0.491	0.423	0.389	0.365	0.391	0.358	0.369	0.365
191.00	0.005	0.363	0.361	0.343	0.390	0.367	0.396	0.377	0.447	0.392	0.354	0.331	0.356	0.343	0.357	0.331
192.00	0.005	0.332	0.329	0.314	0.358	0.335	0.367	0.345	0.415	0.361	0.327	0.299	0.327	0.330	0.346	0.304
193.00	0.005	0.299	0.293	0.280	0.325	0.302	0.332	0.310	0.378	0.328	0.296	0.267	0.295	0.314	0.331	0.271
194.00	0.004	0.269	0.265	0.254	0.298	0.276	0.306	0.283	0.354	0.303	0.272	0.242	0.270	0.302	0.322	0.246
195.00	0.004	0.243	0.239	0.229	0.273	0.251	0.282	0.258	0.335	0.279	0.249	0.218	0.247	0.291	0.313	0.222
196.00	0.005	0.222	0.219	0.209	0.252	0.230	0.262	0.236	0.322	0.260	0.230	0.198	0.227	0.281	0.307	0.203
197.00	0.004	0.203	0.200	0.191	0.235	0.212	0.244	0.218	0.311	0.243	0.213	0.183	0.210	0.273	0.302	0.185
198.00	0.004	0.187	0.184	0.175	0.219	0.195	0.229	0.201	0.302	0.228	0.198	0.168	0.195	0.266	0.297	0.170
199.00	0.004	0.173	0.170	0.162	0.206	0.182	0.217	0.187	0.295	0.215	0.186	0.156	0.182	0.260	0.294	0.158
200.00	0.004	0.161	0.159	0.151	0.195	0.170	0.206	0.175	0.289	0.204	0.176	0.145	0.172	0.256	0.290	0.148
201.00	0.003	0.150	0.148	0.141	0.184	0.160	0.196	0.164	0.283	0.193	0.166	0.135	0.161	0.250	0.286	0.138
202.00	0.003	0.140	0.138	0.132	0.175	0.151	0.187	0.154	0.277	0.185	0.158	0.127	0.153	0.245	0.283	0.130
203.00	0.003	0.133	0.131	0.125	0.168	0.143	0.180	0.147	0.272	0.178	0.151	0.120	0.146	0.241	0.280	0.122
204.00	0.003	0.126	0.125	0.118	0.161	0.136	0.173	0.139	0.267	0.171	0.144	0.114	0.139	0.237	0.276	0.116
205.00	0.002	0.119	0.119	0.112	0.154	0.130	0.167	0.133	0.261	0.165	0.139	0.108	0.133	0.233	0.272	0.110
206.00	0.002	0.114	0.114	0.107	0.149	0.125	0.161	0.128	0.255	0.160	0.134	0.104	0.128	0.229	0.268	0.106
207.00	0.002	0.110	0.110	0.103	0.144	0.120	0.156	0.123	0.249	0.155	0.129	0.100	0.123	0.225	0.263	0.102
208.00	0.002	0.106	0.106	0.099	0.140	0.116	0.152	0.119	0.242	0.150	0.125	0.097	0.119	0.221	0.258	0.098
209.00	0.002	0.102	0.102	0.095	0.135	0.112	0.147	0.115	0.234	0.145	0.122	0.093	0.116	0.217	0.253	0.095
210.00	0.002	0.099	0.099	0.092	0.131	0.109	0.142	0.112	0.226	0.140	0.119	0.090	0.112	0.213	0.248	0.092
211.00	0.002	0.095	0.096	0.089	0.127	0.105	0.138	0.108	0.218	0.136	0.115	0.087	0.109	0.209	0.242	0.089
212.00	0.002	0.092	0.093	0.087	0.122	0.102	0.133	0.105	0.208	0.131	0.112	0.084	0.106	0.205	0.236	0.086
213.00	0.002	0.090	0.090	0.084	0.118	0.100	0.128	0.102	0.198	0.126	0.109	0.082	0.103	0.201	0.230	0.084
214.00	0.002	0.087	0.088	0.081	0.114	0.097	0.123	0.099	0.188	0.122	0.106	0.079	0.100	0.197	0.224	0.081
215.00	0.002	0.085	0.085	0.079	0.111	0.094	0.119	0.097	0.178	0.117	0.104	0.077	0.098	0.193	0.218	0.079
216.00	0.002	0.082	0.083	0.077	0.107	0.092	0.114	0.094	0.168	0.113	0.101	0.075	0.095	0.189	0.213	0.077
217.00	0.002	0.080	0.081	0.075	0.104	0.090	0.110	0.092	0.159	0.109	0.099	0.074	0.093	0.185	0.207	0.075
218.00	0.002	0.078	0.079	0.073	0.101	0.088	0.106	0.090	0.149	0.104	0.097	0.072	0.091	0.182	0.202	0.074
219.00	0.002	0.077	0.077	0.071	0.098	0.086	0.102	0.088	0.140	0.101	0.094	0.070	0.089	0.178	0.197	0.072
220.00	0.002	0.075	0.075	0.069	0.095	0.084	0.098	0.086	0.131	0.097	0.093	0.068	0.087	0.175	0.193	0.070
221.00	0.001	0.073	0.074	0.068	0.092	0.082	0.094	0.084	0.123	0.093	0.091	0.067	0.085	0.172	0.189	0.069
222.00	0.001	0.072	0.072	0.066	0.090	0.081	0.091	0.082	0.115	0.090	0.089	0.065	0.083	0.169	0.185	0.067
223.00	0.002	0.070	0.071	0.065	0.087	0.079	0.088	0.081	0.108	0.087	0.087	0.064	0.082	0.166	0.182	0.066
224.00	0.002	0.069	0.069	0.064	0.085	0.078	0.085	0.079	0.101	0.084	0.086	0.063	0.080	0.164	0.178	0.065
225.00	0.002	0.068	0.068	0.062	0.083	0.076	0.082	0.078	0.095	0.081	0.084	0.062	0.079	0.161	0.175	0.064
226.00	0.002	0.066	0.067	0.061	0.081	0.075	0.079	0.076	0.089	0.078	0.083	0.060	0.077	0.158	0.172	0.062
227.00	0.001	0.065	0.065	0.060	0.079	0.073	0.077	0.074	0.083	0.076	0.081	0.059	0.076	0.156	0.168	0.061
228.00	0.001	0.064	0.064	0.058	0.077	0.072	0.074	0.073	0.078	0.073	0.079	0.058	0.074	0.153	0.165	0.060
229.00	0.001	0.062	0.063	0.057	0.075	0.071	0.072	0.072	0.074	0.071	0.078	0.057	0.073	0.151	0.162	0.059
230.00	0.001	0.061	0.062	0.056	0.074	0.070	0.070	0.070	0.070	0.069	0.077	0.056	0.072	0.148	0.159	0.057
231.00	0.001	0.060	0.060	0.055	0.072	0.068	0.068	0.069	0.066	0.067	0.075	0.055	0.070	0.146	0.157	0.056
232.00	0.001	0.059	0.059	0.054	0.071	0.067	0.067	0.068	0.063	0.066	0.074	0.054	0.069	0.144	0.154	0.055
233.00	0.001	0.058	0.058	0.053	0.069	0.066	0.065	0.067	0.061	0.064	0.073	0.053	0.068	0.142	0.152	0.055
234.00	0.001	0.057	0.058	0.053	0.068	0.065	0.064	0.066	0.059	0.063	0.072	0.052	0.067	0.140	0.149	0.054
235.00	0.001	0.056	0.057	0.051	0.067	0.064	0.063	0.064	0.056	0.061	0.071	0.051	0.066	0.138	0.147	0.053
236.00	0.001	0.055	0.056	0.050	0.065	0.063	0.061	0.063	0.054	0.060	0.070	0.050	0.065	0.136	0.144	0.052
237.00	0.001	0.055	0.055	0.050	0.064	0.062	0.060	0.062	0.053	0.059	0.069	0.050	0.064	0.134	0.142	0.051
238.00	0.001	0.054	0.054	0.049	0.063	0.061	0.059	0.061	0.051	0.058	0.068	0.049	0.063	0.132	0.140	0.050
239.00	0.001	0.053	0.053	0.048	0.063	0.061	0.058	0.061	0.050	0.057	0.067	0.048	0.063	0.130	0.138	0.049
240.00	0.001	0.052	0.052	0.048	0.061	0.060	0.057	0.060	0.049	0.056	0.066	0.048	0.062	0.129	0.136	0.049
241.00	0.001	0.051	0.052	0.047	0.061	0.059	0.056	0.059	0.048	0.055	0.065	0.047	0.061	0.127	0.133	0.048
242.00	0.001	0.051	0.051	0.047	0.060	0.059	0.055	0.058	0.047	0.054	0.064	0.046	0.061	0.126	0.132	0.048
243.00	0.001	0.050	0.051	0.046	0.059	0.058	0.055	0.058	0.047	0.054	0.064	0.046	0.060	0.124	0.130	0.047
244.00	0.001	0.050	0.050	0.045	0.058	0.058	0.054	0.057	0.046	0.053	0.063	0.045	0.059	0.123	0.128	0.047
245.00	0.001	0.049	0.050	0.045	0.058	0.057	0.054	0.057	0.045	0.053	0.062	0.045	0.059	0.122	0.126	0.046
246.00	0.001	0.049	0.049	0.045	0.057	0.057	0.053	0.056	0.045	0.052	0.062	0.044	0.058	0.120	0.125	0.046
247.00	0.001	0.048	0.049	0.044	0.056	0.056	0.052	0.056	0.044	0.051	0.061	0.044	0.058	0.119	0.123	0.045
248.00	0.001	0.048	0.048	0.044	0.056	0.056	0.052	0.055	0.043	0.051	0.061	0.044	0.057	0.118	0.121	0.045
249.00	0.001	0.048	0.048	0.043	0.055	0.055	0.051	0.055	0.043	0.050	0.060	0.043	0.057	0.117	0.120	0.045
250.00	0.001	0.047	0.048	0.043	0.055	0.055	0.051	0.054	0.043	0.050	0.060	0.043	0.057	0.116	0.119	0.044
251.00	0.001	0.047	0.047	0.043	0.054	0.055	0.051	0.054	0.042	0.049	0.059	0.043	0.056	0.115	0.118	0.044
252.00	0.001	0.047	0.047	0.043	0.054	0.054	0.050	0.054	0.042	0.049	0.059	0.042	0.056	0.114	0.117	0.044
253.00	0.001	0.046	0.047	0.042	0.054	0.054	0.050	0.053	0.042	0.049	0.059	0.042	0.056	0.113	0.116	0.043
254.00	0.001	0.046	0.046	0.042	0.053	0.053	0.049	0.053	0.041	0.048	0.058	0.042	0.055	0.112	0.115	0.043
255.00	0.001	0.046	0.046	0.042	0.053	0.053	0.049	0.053	0.041	0.048	0.058	0.042	0.055	0.111	0.114	0.043
256.00	0.001	0.045	0.046	0.042	0.052	0.053	0.049	0.052	0.041	0.048	0.057	0.041	0.054	0.111	0.113	0.043
257.00	0.001	0.045	0.045	0.041	0.052	0.052	0.048	0.052	0.040	0.047	0.057	0.041	0.054	0.110	0.112	0.042
258.00	0.001	0.044	0.045	0.041	0.051	0.052	0.048	0.051	0.040	0.047	0.056	0.041	0.054	0.108	0.111	0.042
259.00	0.001	0.044	0.044	0.040	0.051	0.052	0.048	0.051	0.040	0.046	0.056	0.040	0.053	0.108	0.110	0.041
260.00	0.001	0.044	0.044	0.040	0.050	0.051	0.047	0.051	0.039	0.046	0.055	0.040	0.053	0.107	0.108	0.041
261.00	0.001	0.043	0.044	0.040	0.050	0.051	0.047	0.050	0.039	0.046	0.055	0.039	0.052	0.106	0.108	0.041
262.00	0.001	0.043	0.043	0.039	0.050	0.050	0.046	0.050	0.039	0.045	0.054	0.039	0.052	0.105	0.107	0.040
263.00	0.001	0.042	0.043	0.039	0.049	0.050	0.046	0.049	0.038	0.045	0.054	0.039	0.051	0.104	0.106	0.040
264.00	0.001	0.042	0.043	0.038	0.049	0.049	0.045	0.049	0.038	0.044	0.053	0.038	0.051	0.103	0.105	0.039
265.00	0.001	0.041	0.042	0.038	0.048	0.049	0.045	0.048	0.037	0.044	0.053	0.038	0.050	0.102	0.103	0.039
266.00	0.001	0.041	0.042	0.037	0.048	0.048	0.044	0.048	0.037	0.043	0.052	0.037	0.050	0.101	0.102	0.038
267.00	0.001	0.040	0.041	0.037	0.047	0.048	0.044	0.047	0.037	0.043	0.051	0.037	0.049	0.100	0.101	0.038
268.00	0.001	0.040	0.040	0.036	0.047	0.047	0.043	0.047	0.037	0.042	0.051	0.036	0.049	0.098	0.100	0.037
269.00	0.001	0.039	0.040	0.036	0.046	0.046	0.043	0.046	0.036	0.042	0.050	0.035	0.048	0.097	0.099	0.037
270.00	0.001	0.038	0.039	0.035	0.046	0.046	0.042	0.045	0.036	0.041	0.049	0.035	0.047	0.096	0.098	0.036
271.00	0.001	0.037	0.039	0.034	0.045	0.045	0.041	0.044	0.035	0.041	0.049	0.034	0.047	0.095	0.097	0.035
272.00	0.001	0.037	0.038	0.034	0.044	0.044	0.041	0.044	0.035	0.040	0.048	0.033	0.046	0.093	0.096	0.035
273.00	0.001	0.036	0.037	0.033	0.044	0.044	0.040	0.043	0.035	0.039	0.047	0.033	0.046	0.092	0.095	0.034
274.00	0.001	0.036	0.037	0.033	0.043	0.043	0.040	0.042	0.034	0.039	0.047	0.032	0.045	0.091	0.094	0.033
275.00	0.001	0.035	0.036	0.032	0.043	0.042	0.039	0.041	0.034	0.038	0.046	0.032	0.044	0.090	0.093	0.033
276.00	0.001	0.034	0.036	0.031	0.042	0.041	0.038	0.041	0.033	0.038	0.045	0.031	0.043	0.089	0.092	0.032
277.00	0.001	0.033	0.034	0.031	0.041	0.041	0.038	0.039	0.033	0.037	0.044	0.030	0.043	0.087	0.091	0.031
278.00	0.001	0.033	0.034	0.030	0.041	0.040	0.037	0.039	0.032	0.036	0.043	0.029	0.042	0.086	0.090	0.031
279.00	0.000	0.032	0.033	0.029	0.040	0.039	0.036	0.038	0.032	0.036	0.043	0.029	0.041	0.085	0.089	0.030
280.00	0.001	0.031	0.032	0.028	0.039	0.038	0.036	0.037	0.032	0.035	0.042	0.028	0.040	0.084	0.088	0.029
281.00	0.001	0.030	0.031	0.028	0.039	0.038	0.035	0.037	0.031	0.034	0.041	0.027	0.040	0.083	0.087	0.029
282.00	0.000	0.030	0.031	0.027	0.038	0.037	0.034	0.036	0.031	0.033	0.040	0.027	0.039	0.081	0.086	0.028
283.00	0.000	0.029	0.030	0.026	0.037	0.036	0.034	0.035	0.030	0.033	0.040	0.026	0.038	0.080	0.085	0.027
284.00	0.000	0.028	0.029	0.026	0.037	0.035	0.033	0.034	0.030	0.032	0.039	0.025	0.038	0.079	0.084	0.026
285.00	0.001	0.028	0.029	0.025	0.036	0.035	0.033	0.034	0.029	0.032	0.038	0.025	0.037	0.078	0.083	0.026
286.00	0.001	0.027	0.028	0.024	0.036	0.034	0.032	0.033	0.029	0.031	0.037	0.024	0.036	0.077	0.082	0.025
287.00	0.001	0.026	0.027	0.024	0.035	0.033	0.032	0.032	0.029	0.031	0.036	0.023	0.036	0.075	0.080	0.024
288.00	0.000	0.025	0.027	0.023	0.035	0.033	0.031	0.031	0.028	0.030	0.035	0.023	0.035	0.074	0.079	0.024
289.00	0.000	0.025	0.026	0.022	0.034	0.032	0.030	0.031	0.028	0.029	0.035	0.022	0.034	0.073	0.078	0.023
290.00	0.000	0.024	0.025	0.022	0.033	0.031	0.030	0.030	0.027	0.029	0.034	0.021	0.034	0.072	0.077	0.023
291.00	0.000	0.024	0.025	0.021	0.032	0.031	0.029	0.029	0.027	0.028	0.033	0.021	0.033	0.071	0.076	0.022
292.00	0.000	0.023	0.024	0.020	0.032	0.030	0.029	0.028	0.026	0.027	0.033	0.020	0.032	0.069	0.074	0.021
293.00	0.001	0.023	0.024	0.020	0.031	0.029	0.028	0.028	0.026	0.027	0.032	0.020	0.032	0.068	0.073	0.021
294.00	0.000	0.022	0.023	0.019	0.031	0.029	0.028	0.027	0.026	0.026	0.031	0.019	0.031	0.067	0.072	0.020
295.00	0.001	0.021	0.023	0.019	0.030	0.028	0.027	0.027	0.025	0.026	0.031	0.019	0.030	0.067	0.071	0.020
296.00	0.000	0.021	0.022	0.018	0.029	0.028	0.026	0.026	0.025	0.025	0.030	0.018	0.030	0.065	0.070	0.019
297.00	0.001	0.021	0.021	0.018	0.029	0.027	0.026	0.026	0.025	0.025	0.029	0.018	0.029	0.065	0.069	0.019
298.00	0.001	0.020	0.021	0.017	0.028	0.027	0.025	0.025	0.024	0.024	0.029	0.017	0.029	0.064	0.068	0.018
299.00	0.000	0.019	0.020	0.017	0.028	0.026	0.025	0.024	0.024	0.024	0.028	0.017	0.028	0.063	0.067	0.018
300.00	0.000	0.019	0.020	0.016	0.027	0.026	0.025	0.024	0.023	0.023	0.028	0.016	0.028	0.062	0.066	0.017
301.00	0.001	0.019	0.020	0.016	0.027	0.025	0.024	0.023	0.023	0.023	0.027	0.016	0.028	0.061	0.065	0.017
302.00	0.001	0.018	0.019	0.016	0.027	0.025	0.024	0.023	0.023	0.023	0.027	0.016	0.027	0.060	0.064	0.017
303.00	0.000	0.018	0.019	0.015	0.026	0.024	0.023	0.023	0.022	0.022	0.026	0.015	0.027	0.059	0.063	0.016
304.00	0.000	0.017	0.018	0.015	0.026	0.024	0.023	0.022	0.022	0.022	0.026	0.015	0.026	0.058	0.062	0.016
305.00	0.001	0.017	0.018	0.014	0.025	0.024	0.023	0.022	0.022	0.021	0.025	0.015	0.026	0.057	0.061	0.015
306.00	0.000	0.016	0.017	0.014	0.024	0.023	0.022	0.021	0.021	0.021	0.024	0.014	0.025	0.056	0.060	0.015
307.00	0.000	0.016	0.017	0.014	0.024	0.023	0.022	0.021	0.021	0.021	0.024	0.014	0.025	0.055	0.059	0.015
308.00	0.000	0.016	0.017	0.013	0.024	0.022	0.021	0.020	0.021	0.020	0.024	0.013	0.025	0.054	0.058	0.014
309.00	0.000	0.015	0.016	0.013	0.023	0.022	0.021	0.020	0.020	0.019	0.023	0.013	0.024	0.054	0.057	0.014
310.00	0.000	0.015	0.016	0.012	0.023	0.021	0.020	0.020	0.020	0.019	0.023	0.013	0.024	0.053	0.056	0.013
311.00	0.000	0.015	0.016	0.012	0.022	0.021	0.020	0.019	0.020	0.019	0.022	0.012	0.024	0.052	0.056	0.013
312.00	0.000	0.015	0.016	0.012	0.022	0.021	0.020	0.019	0.019	0.019	0.022	0.012	0.023	0.052	0.055	0.013
313.00	0.000	0.014	0.015	0.012	0.022	0.021	0.020	0.018	0.019	0.018	0.021	0.012	0.023	0.051	0.054	0.013
314.00	0.000	0.014	0.015	0.011	0.021	0.020	0.019	0.018	0.019	0.018	0.021	0.011	0.023	0.050	0.053	0.012
315.00	0.000	0.014	0.015	0.011	0.021	0.020	0.019	0.018	0.019	0.018	0.021	0.011	0.022	0.049	0.053	0.012
316.00	0.000	0.014	0.014	0.011	0.021	0.020	0.019	0.018	0.018	0.017	0.020	0.011	0.022	0.049	0.052	0.012
317.00	0.000	0.014	0.014	0.011	0.021	0.020	0.018	0.017	0.018	0.017	0.020	0.011	0.022	0.048	0.051	0.012
318.00	0.000	0.013	0.014	0.011	0.020	0.019	0.018	0.017	0.018	0.017	0.020	0.011	0.022	0.047	0.051	0.012
319.00	0.000	0.013	0.014	0.010	0.020	0.019	0.018	0.016	0.018	0.017	0.019	0.010	0.021	0.046	0.050	0.011
320.00	0.000	0.013	0.013	0.010	0.019	0.019	0.017	0.016	0.017	0.016	0.019	0.010	0.021	0.046	0.049	0.011
321.00	0.000	0.013	0.013	0.010	0.019	0.019	0.017	0.016	0.017	0.016	0.019	0.010	0.021	0.045	0.048	0.011
322.00	0.000	0.012	0.013	0.010	0.019	0.019	0.017	0.016	0.017	0.016	0.019	0.010	0.020	0.045	0.048	0.011
323.00	0.001	0.012	0.013	0.009	0.019	0.018	0.017	0.016	0.017	0.015	0.018	0.010	0.020	0.044	0.047	0.011
324.00	0.000	0.012	0.013	0.009	0.018	0.018	0.017	0.015	0.016	0.015	0.018	0.009	0.020	0.044	0.046	0.010
325.00	0.001	0.012	0.013	0.009	0.018	0.018	0.017	0.015	0.016	0.015	0.018	0.009	0.020	0.043	0.046	0.011
326.00	0.000	0.012	0.012	0.009	0.018	0.018	0.016	0.015	0.016	0.015	0.017	0.009	0.020	0.042	0.045	0.010
327.00	0.001	0.011	0.012	0.009	0.018	0.018	0.016	0.015	0.016	0.015	0.017	0.009	0.020	0.042	0.044	0.010
328.00	0.000	0.011	0.012	0.009	0.017	0.017	0.016	0.014	0.016	0.014	0.017	0.009	0.019	0.041	0.044	0.010
329.00	0.000	0.011	0.012	0.009	0.017	0.017	0.016	0.014	0.015	0.014	0.017	0.009	0.019	0.041	0.043	0.010
330.00	0.000	0.011	0.012	0.008	0.017	0.017	0.015	0.014	0.015	0.014	0.016	0.009	0.019	0.040	0.042	0.009
331.00	0.000	0.011	0.011	0.008	0.016	0.017	0.015	0.014	0.015	0.014	0.016	0.008	0.018	0.039	0.042	0.009
332.00	0.000	0.011	0.011	0.008	0.017	0.017	0.015	0.014	0.015	0.014	0.016	0.008	0.019	0.039	0.041	0.009
333.00	0.001	0.011	0.011	0.008	0.016	0.016	0.015	0.013	0.014	0.013	0.015	0.008	0.018	0.038	0.041	0.009
334.00	0.000	0.010	0.011	0.008	0.016	0.016	0.014	0.013	0.014	0.013	0.015	0.008	0.018	0.038	0.040	0.008
335.00	0.000	0.010	0.011	0.008	0.016	0.016	0.014	0.013	0.014	0.013	0.015	0.007	0.018	0.037	0.039	0.008
336.00	0.000	0.010	0.010	0.007	0.015	0.016	0.014	0.013	0.014	0.013	0.014	0.008	0.018	0.036	0.039	0.008
337.00	0.000	0.010	0.010	0.007	0.015	0.015	0.014	0.012	0.014	0.013	0.014	0.007	0.017	0.036	0.038	0.008
338.00	0.000	0.010	0.010	0.007	0.015	0.015	0.013	0.012	0.013	0.012	0.014	0.007	0.017	0.036	0.037	0.008
339.00	0.001	0.010	0.011	0.008	0.015	0.016	0.014	0.013	0.014	0.013	0.014	0.007	0.018	0.035	0.038	0.008
340.00	0.001	0.011	0.011	0.009	0.016	0.017	0.015	0.013	0.015	0.013	0.015	0.008	0.018	0.036	0.038	0.009
341.00	0.000	0.010	0.010	0.007	0.015	0.016	0.014	0.012	0.013	0.012	0.014	0.007	0.017	0.034	0.036	0.008
342.00	0.000	0.009	0.010	0.007	0.014	0.015	0.013	0.012	0.013	0.012	0.013	0.007	0.017	0.034	0.035	0.007
343.00	0.000	0.009	0.009	0.006	0.014	0.015	0.013	0.011	0.012	0.011	0.013	0.007	0.016	0.033	0.035	0.007
344.00	0.000	0.009	0.009	0.006	0.013	0.015	0.012	0.011	0.013	0.011	0.013	0.007	0.016	0.032	0.034	0.007
345.00	0.000	0.009	0.009	0.006	0.014	0.014	0.012	0.011	0.012	0.011	0.013	0.006	0.016	0.032	0.033	0.007
346.00	-0.000	0.008	0.009	0.006	0.013	0.014	0.012	0.010	0.012	0.011	0.012	0.006	0.015	0.031	0.032	0.007
347.00	0.000	0.008	0.009	0.006	0.013	0.014	0.012	0.011	0.012	0.011	0.012	0.006	0.016	0.031	0.033	0.007
348.00	0.000	0.008	0.009	0.006	0.013	0.014	0.012	0.011	0.012	0.011	0.012	0.006	0.015	0.030	0.032	0.007
349.00	0.000	0.008	0.009	0.006	0.012	0.014	0.012	0.010	0.012	0.011	0.012	0.006	0.015	0.030	0.031	0.007
350.00	0.001	0.008	0.009	0.006	0.013	0.014	0.012	0.010	0.012	0.011	0.012	0.006	0.015	0.030	0.031	0.007
351.00	0.000	0.008	0.009	0.006	0.013	0.014	0.012	0.010	0.012	0.010	0.012	0.006	0.015	0.029	0.030	0.007
352.00	0.001	0.008	0.009	0.006	0.012	0.014	0.012	0.010	0.011	0.010	0.011	0.006	0.015	0.029	0.030	0.006
353.00	0.000	0.008	0.008	0.006	0.012	0.014	0.011	0.010	0.011	0.010	0.011	0.006	0.015	0.028	0.029	0.006
354.00	0.000	0.008	0.008	0.005	0.012	0.013	0.011	0.010	0.011	0.009	0.011	0.006	0.014	0.028	0.029	0.006
355.00	0.000	0.008	0.008	0.005	0.012	0.013	0.011	0.010	0.011	0.010	0.011	0.005	0.015	0.027	0.029	0.006
356.00	0.000	0.007	0.008	0.005	0.011	0.013	0.010	0.009	0.010	0.009	0.010	0.005	0.014	0.027	0.028	0.006
357.00	0.000	0.007	0.007	0.005	0.011	0.013	0.010	0.009	0.010	0.009	0.010	0.005	0.014	0.026	0.028	0.006
358.00	-0.000	0.007	0.007	0.005	0.011	0.013	0.010	0.009	0.010	0.009	0.010	0.005	0.014	0.025	0.027	0.005
359.00	0.000	0.007	0.007	0.005	0.011	0.013	0.010	0.009	0.010	0.009	0.010	0.005	0.014	0.026	0.027	0.006
360.00	0.000	0.007	0.007	0.005	0.011	0.013	0.010	0.009	0.010	0.009	0.010	0.005	0.014	0.025	0.027	0.005
361.00	0.000	0.007	0.007	0.005	0.010	0.012	0.010	0.009	0.010	0.008	0.010	0.005	0.014	0.025	0.026	0.005
362.00	0.000	0.007	0.007	0.004	0.010	0.012	0.009	0.008	0.010	0.008	0.010	0.004	0.013	0.024	0.025	0.005
363.00	0.000	0.007	0.007	0.005	0.010	0.012	0.010	0.008	0.009	0.008	0.009	0.005	0.014	0.024	0.025	0.005
364.00	0.000	0.007	0.007	0.004	0.010	0.012	0.009	0.008	0.009	0.008	0.009	0.005	0.013	0.023	0.025	0.005
365.00	-0.000	0.007	0.007	0.004	0.010	0.012	0.009	0.008	0.009	0.008	0.009	0.004	0.013	0.023	0.024	0.005
366.00	0.000	0.007	0.007	0.004	0.010	0.012	0.009	0.008	0.009	0.008	0.009	0.004	0.013	0.023	0.024	0.005
367.00	0.000	0.007	0.007	0.004	0.010	0.012	0.009	0.008	0.009	0.008	0.009	0.004	0.013	0.022	0.024	0.005
368.00	0.000	0.006	0.006	0.004	0.009	0.012	0.009	0.008	0.009	0.008	0.009	0.004	0.013	0.022	0.023	0.005
369.00	0.000	0.007	0.007	0.004	0.009	0.012	0.009	0.008	0.009	0.008	0.009	0.004	0.013	0.021	0.023	0.005
370.00	-0.000	0.006	0.006	0.004	0.009	0.011	0.009	0.008	0.009	0.007	0.008	0.004	0.013	0.021	0.022	0.004
371.00	-0.000	0.006	0.006	0.004	0.009	0.011	0.009	0.007	0.008	0.007	0.008	0.004	0.012	0.021	0.022	0.005
372.00	0.000	0.006	0.006	0.004	0.009	0.011	0.008	0.008	0.008	0.007	0.008	0.004	0.013	0.020	0.022	0.004
373.00	0.000	0.006	0.006	0.004	0.009	0.011	0.008	0.007	0.008	0.007	0.008	0.004	0.012	0.020	0.022	0.004
374.00	0.000	0.006	0.006	0.004	0.009	0.011	0.008	0.007	0.008	0.007	0.008	0.004	0.012	0.020	0.021	0.004
375.00	0.000	0.006	0.006	0.004	0.008	0.011	0.008	0.007	0.008	0.007	0.008	0.004	0.012	0.020	0.021	0.004
376.00	0.000	0.006	0.006	0.004	0.008	0.011	0.008	0.007	0.008	0.007	0.008	0.004	0.012	0.019	0.020	0.004
377.00	0.000	0.006	0.006	0.004	0.008	0.011	0.008	0.007	0.008	0.007	0.007	0.004	0.012	0.019	0.020	0.004
378.00	0.000	0.006	0.006	0.004	0.008	0.011	0.008	0.007	0.007	0.007	0.007	0.004	0.012	0.019	0.020	0.004
379.00	0.000	0.005	0.006	0.003	0.008	0.011	0.008	0.007	0.007	0.007	0.007	0.003	0.012	0.018	0.020	0.004
380.00	0.000	0.005	0.006	0.003	0.008	0.011	0.008	0.007	0.007	0.006	0.007	0.003	0.012	0.018	0.019	0.004
381.00	0.000	0.005	0.006	0.003	0.008	0.011	0.008	0.007	0.007	0.006	0.007	0.003	0.012	0.018	0.019	0.004
382.00	-0.000	0.005	0.005	0.003	0.008	0.010	0.008	0.007	0.007	0.006	0.007	0.003	0.012	0.017	0.019	0.004
383.00	0.000	0.005	0.005	0.003	0.008	0.010	0.008	0.007	0.007	0.006	0.007	0.003	0.012	0.017	0.019	0.004
384.00	0.000	0.005	0.005	0.003	0.008	0.010	0.008	0.007	0.007	0.006	0.007	0.003	0.012	0.017	0.018	0.004
385.00	0.000	0.005	0.005	0.003	0.007	0.010	0.007	0.006	0.007	0.006	0.007	0.003	0.011	0.017	0.018	0.004
386.00	0.000	0.005	0.005	0.003	0.007	0.010	0.007	0.006	0.007	0.006	0.007	0.003	0.011	0.016	0.018	0.004
387.00	0.000	0.005	0.005	0.003	0.007	0.010	0.007	0.006	0.007	0.006	0.007	0.003	0.011	0.016	0.017	0.004
388.00	0.000	0.005	0.005	0.003	0.007	0.010	0.007	0.006	0.007	0.006	0.006	0.003	0.011	0.016	0.017	0.003
389.00	0.000	0.005	0.005	0.003	0.007	0.010	0.007	0.006	0.006	0.006	0.006	0.003	0.011	0.016	0.017	0.003
390.00	0.000	0.005	0.005	0.003	0.007	0.010	0.007	0.006	0.006	0.006	0.006	0.003	0.011	0.015	0.017	0.003
391.00	0.000	0.005	0.005	0.003	0.007	0.010	0.007	0.006	0.006	0.006	0.006	0.003	0.011	0.015	0.016	0.003
392.00	0.000	0.005	0.005	0.003	0.007	0.010	0.007	0.006	0.006	0.005	0.006	0.003	0.011	0.015	0.016	0.003
393.00	-0.000	0.005	0.004	0.002	0.006	0.010	0.006	0.006	0.006	0.005	0.006	0.002	0.011	0.014	0.016	0.003
394.00	-0.000	0.004	0.004	0.003	0.006	0.009	0.006	0.006	0.006	0.005	0.006	0.003	0.011	0.014	0.016	0.003
395.00	0.000	0.005	0.005	0.003	0.007	0.010	0.006	0.006	0.006	0.005	0.006	0.003	0.011	0.014	0.015	0.003
396.00	0.000	0.004	0.005	0.002	0.006	0.009	0.006	0.006	0.006	0.005	0.006	0.002	0.011	0.014	0.015	0.003
397.00	0.000	0.004	0.004	0.002	0.006	0.009	0.006	0.005	0.006	0.005	0.005	0.002	0.010	0.014	0.015	0.003
398.00	-0.000	0.004	0.004	0.002	0.006	0.009	0.006	0.005	0.006	0.005	0.005	0.002	0.010	0.013	0.015	0.003
399.00	0.000	0.004	0.004	0.002	0.006	0.009	0.006	0.005	0.006	0.005	0.005	0.002	0.010	0.013	0.014	0.003
400.00	0.000	0.004	0.004	0.002	0.006	0.009	0.006	0.005	0.005	0.005	0.005	0.002	0.010	0.013	0.014	0.003
401.00	0.000	0.004	0.004	0.002	0.006	0.009	0.006	0.005	0.005	0.005	0.005	0.002	0.010	0.013	0.014	0.003
402.00	0.000	0.004	0.004	0.002	0.006	0.009	0.006	0.005	0.005	0.005	0.005	0.002	0.010	0.013	0.014	0.002
403.00	0.000	0.004	0.004	0.002	0.006	0.009	0.006	0.005	0.005	0.005	0.005	0.002	0.010	0.013	0.014	0.003
404.00	0.000	0.004	0.004	0.002	0.006	0.009	0.006	0.005	0.005	0.005	0.005	0.002	0.010	0.012	0.014	0.002
405.00	0.000	0.004	0.004	0.002	0.006	0.009	0.006	0.005	0.005	0.004	0.005	0.002	0.010	0.012	0.013	0.002
406.00	0.000	0.004	0.004	0.002	0.006	0.009	0.006	0.005	0.005	0.004	0.005	0.002	0.010	0.012	0.013	0.002
407.00	0.000	0.004	0.004	0.002	0.006	0.009	0.006	0.005	0.005	0.004	0.005	0.002	0.010	0.012	0.013	0.002
408.00	0.000	0.004	0.004	0.002	0.006	0.009	0.006	0.005	0.005	0.004	0.005	0.002	0.010	0.012	0.013	0.002
409.00	0.000	0.004	0.004	0.002	0.005	0.009	0.005	0.005	0.005	0.004	0.005	0.002	0.010	0.011	0.013	0.002
410.00	0.000	0.004	0.004	0.002	0.005	0.009	0.005	0.005	0.005	0.004	0.004	0.002	0.010	0.011	0.012	0.002
411.00	0.000	0.004	0.004	0.002	0.005	0.009	0.005	0.005	0.005	0.004	0.004	0.002	0.010	0.011	0.012	0.002
412.00	0.000	0.004	0.004	0.002	0.005	0.009	0.005	0.005	0.005	0.004	0.004	0.002	0.010	0.011	0.012	0.002
413.00	0.000	0.004	0.004	0.002	0.005	0.009	0.005	0.005	0.005	0.004	0.004	0.002	0.010	0.011	0.012	0.002
414.00	0.000	0.004	0.004	0.002	0.005	0.008	0.005	0.005	0.005	0.004	0.004	0.002	0.010	0.011	0.012	0.002
415.00	0.000	0.004	0.004	0.002	0.005	0.008	0.005	0.005	0.005	0.004	0.004	0.002	0.010	0.011	0.012	0.002
416.00	0.000	0.004	0.004	0.002	0.005	0.009	0.005	0.005	0.005	0.004	0.004	0.002	0.010	0.010	0.012	0.002
417.00	0.000	0.004	0.004	0.002	0.005	0.008	0.005	0.004	0.005	0.004	0.004	0.002	0.009	0.010	0.012	0.002
418.00	0.000	0.004	0.003	0.002	0.005	0.008	0.005	0.004	0.004	0.004	0.004	0.002	0.009	0.010	0.011	0.002
419.00	0.000	0.003	0.003	0.002	0.005	0.008	0.005	0.004	0.004	0.004	0.004	0.002	0.009	0.010	0.011	0.002
420.00	0.000	0.003	0.003	0.002	0.005	0.008	0.005	0.004	0.004	0.004	0.004	0.002	0.009	0.010	0.011	0.002
421.00	0.000	0.003	0.003	0.002	0.005	0.008	0.005	0.004	0.004	0.004	0.004	0.002	0.009	0.010	0.011	0.002
422.00	0.000	0.003	0.003	0.002	0.005	0.008	0.005	0.004	0.004	0.004	0.004	0.001	0.009	0.009	0.011	0.002
423.00	0.000	0.003	0.003	0.002	0.005	0.008	0.005	0.004	0.004	0.004	0.004	0.001	0.009	0.009	0.011	0.002
424.00	0.000	0.003	0.003	0.002	0.005	0.008	0.005	0.004	0.004	0.004	0.004	0.002	0.009	0.009	0.011	0.002
425.00	0.000	0.003	0.003	0.001	0.005	0.008	0.005	0.004	0.004	0.004	0.004	0.002	0.009	0.009	0.010	0.002
426.00	0.000	0.003	0.003	0.001	0.005	0.008	0.005	0.004	0.004	0.003	0.004	0.001	0.009	0.009	0.010	0.002
427.00	0.000	0.003	0.003	0.002	0.005	0.008	0.005	0.004	0.004	0.004	0.004	0.001	0.009	0.009	0.010	0.002
428.00	0.000	0.003	0.003	0.001	0.005	0.008	0.005	0.004	0.004	0.004	0.004	0.001	0.009	0.009	0.010	0.002
429.00	-0.000	0.003	0.003	0.001	0.004	0.008	0.005	0.004	0.004	0.003	0.003	0.001	0.009	0.008	0.010	0.002
430.00	0.000	0.003	0.003	0.001	0.004	0.008	0.005	0.004	0.004	0.003	0.003	0.001	0.009	0.008	0.010	0.002
431.00	0.000	0.003	0.003	0.001	0.004	0.008	0.005	0.004	0.004	0.003	0.003	0.001	0.009	0.008	0.010	0.002
432.00	0.000	0.003	0.003	0.001	0.004	0.008	0.004	0.004	0.004	0.003	0.003	0.001	0.009	0.008	0.010	0.002
433.00	0.000	0.003	0.003	0.001	0.004	0.008	0.004	0.004	0.004	0.003	0.003	0.001	0.009	0.008	0.010	0.002
434.00	0.000	0.003	0.003	0.001	0.004	0.008	0.004	0.004	0.004	0.003	0.003	0.001	0.009	0.008	0.009	0.002
435.00	-0.000	0.003	0.003	0.001	0.004	0.008	0.004	0.004	0.004	0.003	0.003	0.001	0.009	0.008	0.009	0.001
436.00	0.000	0.003	0.003	0.001	0.004	0.008	0.004	0.004	0.003	0.003	0.003	0.001	0.009	0.008	0.009	0.001
437.00	-0.000	0.003	0.003	0.001	0.004	0.007	0.004	0.003	0.003	0.003	0.003	0.001	0.009	0.008	0.009	0.001
438.00	-0.000	0.003	0.003	0.001	0.004	0.007	0.004	0.003	0.003	0.003	0.003	0.001	0.009	0.008	0.009	0.001
439.00	0.000	0.003	0.003	0.001	0.004	0.007	0.004	0.003	0.003	0.003	0.003	0.001	0.009	0.008	0.009	0.001
440.00	0.000	0.003	0.003	0.001	0.004	0.007	0.004	0.003	0.003	0.003	0.003	0.001	0.009	0.007	0.009	0.001
441.00	0.000	0.003	0.003	0.001	0.004	0.007	0.004	0.003	0.003	0.003	0.003	0.001	0.008	0.007	0.009	0.001
442.00	0.000	0.003	0.003	0.001	0.004	0.007	0.004	0.003	0.003	0.003	0.003	0.001	0.008	0.007	0.009	0.001
443.00	0.000	0.003	0.003	0.001	0.004	0.007	0.004	0.003	0.003	0.003	0.003	0.001	0.008	0.007	0.008	0.001
444.00	0.000	0.003	0.003	0.001	0.004	0.007	0.004	0.003	0.003	0.003	0.003	0.001	0.008	0.007	0.008	0.001
445.00	0.000	0.003	0.003	0.001	0.004	0.007	0.004	0.003	0.003	0.003	0.003	0.001	0.008	0.007	0.008	0.001
446.00	-0.000	0.003	0.003	0.001	0.004	0.007	0.004	0.003	0.003	0.003	0.003	0.001	0.008	0.007	0.008	0.001
447.00	-0.000	0.003	0.003	0.001	0.004	0.007	0.004	0.003	0.003	0.003	0.003	0.001	0.008	0.007	0.008	0.001
448.00	-0.000	0.003	0.003	0.001	0.004	0.007	0.004	0.003	0.003	0.003	0.003	0.001	0.008	0.007	0.008	0.001
449.00	0.000	0.003	0.003	0.001	0.004	0.007	0.004	0.003	0.003	0.003	0.003	0.001	0.008	0.007	0.008	0.001
450.00	0.000	0.003	0.003	0.001	0.004	0.007	0.004	0.003	0.003	0.003	0.003	0.001	0.008	0.007	0.008	0.001
451.00	0.000	0.003	0.003	0.001	0.004	0.007	0.004	0.003	0.003	0.003	0.003	0.001	0.008	0.006	0.008	0.001
452.00	0.000	0.003	0.003	0.001	0.004	0.007	0.004	0.003	0.003	0.003	0.003	0.001	0.008	0.006	0.008	0.001
453.00	0.000	0.003	0.002	0.001	0.003	0.007	0.004	0.003	0.003	0.002	0.003	0.001	0.008	0.006	0.008	0.001
454.00	0.000	0.003	0.002	0.001	0.003	0.007	0.004	0.003	0.003	0.003	0.003	0.001	0.008	0.006	0.008	0.001
455.00	0.000	0.003	0.003	0.001	0.003	0.007	0.004	0.003	0.003	0.003	0.003	0.001	0.008	0.006	0.008	0.001
456.00	0.000	0.003	0.003	0.001	0.003	0.007	0.004	0.003	0.003	0.003	0.002	0.001	0.008	0.006	0.008	0.001
457.00	0.000	0.003	0.003	0.001	0.003	0.007	0.004	0.003	0.003	0.003	0.002	0.001	0.008	0.006	0.007	0.001
458.00	0.000	0.003	0.002	0.001	0.003	0.007	0.004	0.003	0.003	0.003	0.002	0.001	0.008	0.006	0.007	0.001
459.00	-0.000	0.003	0.002	0.001	0.003	0.007	0.004	0.003	0.003	0.003	0.002	0.001	0.008	0.006	0.007	0.001
460.00	0.000	0.002	0.002	0.001	0.003	0.007	0.004	0.003	0.003	0.003	0.002	0.001	0.008	0.006	0.007	0.001
461.00	0.000	0.003	0.002	0.001	0.003	0.007	0.004	0.003	0.003	0.002	0.002	0.001	0.008	0.006	0.007	0.001
462.00	0.000	0.003	0.002	0.001	0.003	0.007	0.004	0.003	0.003	0.002	0.002	0.001	0.008	0.006	0.007	0.001
463.00	0.000	0.003	0.002	0.001	0.003	0.007	0.004	0.003	0.003	0.002	0.002	0.001	0.008	0.006	0.007	0.001
464.00	-0.000	0.002	0.002	0.001	0.003	0.007	0.003	0.003	0.003	0.002	0.002	0.001	0.008	0.005	0.007	0.001
465.00	-0.000	0.003	0.002	0.001	0.003	0.007	0.003	0.003	0.003	0.002	0.002	0.001	0.008	0.005	0.007	0.001
466.00	0.000	0.003	0.002	0.001	0.003	0.007	0.003	0.003	0.003	0.002	0.002	0.001	0.008	0.005	0.007	0.001
467.00	0.000	0.002	0.002	0.001	0.003	0.007	0.004	0.003	0.003	0.002	0.002	0.001	0.008	0.005	0.007	0.001
468.00	-0.000	0.002	0.002	0.001	0.003	0.007	0.003	0.003	0.003	0.002	0.002	0.001	0.008	0.005	0.007	0.001
469.00	0.000	0.002	0.002	0.001	0.003	0.006	0.003	0.003	0.003	0.002	0.002	0.001	0.008	0.005	0.007	0.001
470.00	-0.000	0.002	0.002	0.001	0.003	0.007	0.003	0.003	0.003	0.002	0.002	0.001	0.007	0.005	0.007	0.001
471.00	0.000	0.002	0.002	0.001	0.003	0.006	0.003	0.003	0.003	0.002	0.002	0.001	0.008	0.005	0.007	0.001
472.00	0.000	0.002	0.002	0.001	0.003	0.006	0.003	0.003	0.003	0.002	0.002	0.001	0.007	0.005	0.007	0.001
473.00	0.000	0.002	0.002	0.001	0.003	0.007	0.003	0.003	0.002	0.002	0.002	0.001	0.007	0.005	0.007	0.001
474.00	0.000	0.002	0.002	0.001	0.003	0.006	0.003	0.003	0.002	0.002	0.002	0.001	0.007	0.005	0.006	0.001
475.00	0.000	0.002	0.002	0.001	0.003	0.006	0.003	0.003	0.002	0.002	0.002	0.001	0.007	0.005	0.006	0.001
476.00	0.000	0.002	0.002	0.001	0.003	0.006	0.003	0.003	0.002	0.002	0.002	0.001	0.007	0.005	0.006	0.001
477.00	0.000	0.002	0.002	0.001	0.003	0.006	0.003	0.003	0.002	0.002	0.002	0.001	0.007	0.005	0.006	0.001
478.00	-0.000	0.002	0.002	0.001	0.003	0.006	0.003	0.003	0.002	0.002	0.002	0.001	0.007	0.005	0.006	0.001
479.00	-0.000	0.002	0.002	0.001	0.003	0.006	0.003	0.003	0.002	0.002	0.002	0.001	0.007	0.005	0.006	0.001
480.00	0.000	0.002	0.002	0.001	0.003	0.006	0.003	0.003	0.002	0.002	0.002	0.001	0.007	0.005	0.006	0.001
481.00	0.000	0.002	0.002	0.001	0.003	0.006	0.003	0.003	0.002	0.002	0.002	0.001	0.007	0.005	0.006	0.001
482.00	0.000	0.002	0.002	0.001	0.003	0.006	0.003	0.003	0.002	0.002	0.002	0.001	0.007	0.005	0.006	0.001
483.00	0.000	0.002	0.002	0.001	0.003	0.006	0.003	0.003	0.002	0.002	0.002	0.000	0.007	0.005	0.006	0.001
484.00	-0.000	0.002	0.002	0.001	0.003	0.006	0.003	0.002	0.002	0.002	0.002	0.000	0.007	0.004	0.006	0.001
485.00	-0.000	0.002	0.002	0.001	0.003	0.006	0.003	0.002	0.002	0.002	0.002	0.001	0.007	0.004	0.006	0.001
486.00	-0.000	0.002	0.002	0.001	0.003	0.006	0.003	0.002	0.002	0.002	0.002	0.001	0.007	0.004	0.006	0.001
487.00	-0.000	0.002	0.002	0.001	0.003	0.006	0.003	0.002	0.002	0.002	0.002	0.000	0.007	0.004	0.006	0.001
488.00	-0.000	0.002	0.002	0.000	0.003	0.006	0.003	0.002	0.002	0.002	0.002	0.000	0.007	0.004	0.006	0.001
489.00	-0.000	0.002	0.002	0.000	0.002	0.006	0.003	0.002	0.002	0.002	0.002	0.000	0.007	0.004	0.006	0.001
490.00	-0.000	0.002	0.002	0.000	0.003	0.006	0.003	0.002	0.002	0.002	0.002	0.000	0.007	0.004	0.006	0.001
491.00	-0.000	0.002	0.002	0.000	0.003	0.006	0.003	0.002	0.002	0.002	0.002	0.000	0.007	0.004	0.006	0.001
492.00	0.000	0.002	0.002	0.001	0.003	0.006	0.003	0.002	0.002	0.002	0.002	0.001	0.007	0.004	0.006	0.001
493.00	0.000	0.002	0.002	0.000	0.003	0.006	0.003	0.002	0.002	0.002	0.002	0.000	0.007	0.004	0.006	0.001
494.00	-0.000	0.002	0.002	0.000	0.003	0.006	0.003	0.002	0.002	0.002	0.002	0.000	0.007	0.004	0.005	0.001
495.00	0.000	0.002	0.002	0.000	0.003	0.006	0.003	0.002	0.002	0.002	0.002	0.000	0.007	0.004	0.005	0.001
496.00	-0.000	0.002	0.002	0.000	0.003	0.006	0.003	0.002	0.002	0.002	0.002	0.000	0.007	0.004	0.005	0.001
497.00	0.000	0.002	0.002	0.001	0.003	0.006	0.003	0.002	0.002	0.002	0.002	0.000	0.007	0.004	0.005	0.001
498.00	0.000	0.002	0.002	0.000	0.003	0.006	0.003	0.002	0.002	0.002	0.002	0.001	0.007	0.004	0.005	0.001
499.00	0.000	0.002	0.002	0.001	0.003	0.006	0.003	0.002	0.002	0.002	0.002	0.000	0.007	0.004	0.005	0.001
500.00	0.000	0.002	0.002	0.001	0.003	0.006	0.003	0.002	0.002	0.002	0.002	0.000	0.007	0.004	0.005	0.001
501.00	0.000	0.002	0.002	0.001	0.003	0.006	0.003	0.002	0.002	0.002	0.002	0.000	0.007	0.004	0.005	0.001
502.00	-0.000	0.002	0.002	0.000	0.002	0.006	0.003	0.002	0.002	0.002	0.002	0.000	0.007	0.004	0.005	0.001
503.00	-0.000	0.002	0.002	0.000	0.002	0.006	0.003	0.002	0.002	0.002	0.002	0.000	0.007	0.004	0.005	0.001
504.00	0.000	0.002	0.002	0.001	0.002	0.006	0.003	0.002	0.002	0.002	0.002	0.000	0.007	0.004	0.005	0.001
505.00	-0.000	0.002	0.002	0.000	0.002	0.006	0.003	0.002	0.002	0.002	0.002	0.000	0.007	0.004	0.005	0.001
506.00	-0.000	0.002	0.002	0.000	0.002	0.006	0.003	0.002	0.002	0.002	0.002	0.000	0.007	0.004	0.005	0.001
507.00	-0.000	0.002	0.002	0.000	0.002	0.006	0.003	0.002	0.002	0.002	0.001	0.000	0.007	0.004	0.005	0.001
508.00	-0.000	0.002	0.002	0.000	0.002	0.006	0.003	0.002	0.002	0.002	0.002	0.000	0.007	0.004	0.005	0.001
509.00	0.000	0.002	0.002	0.000	0.002	0.006	0.003	0.002	0.002	0.002	0.002	0.000	0.007	0.004	0.005	0.001
510.00	-0.000	0.002	0.002	0.000	0.002	0.006	0.003	0.002	0.002	0.002	0.001	0.000	0.007	0.003	0.005	0.001
511.00	-0.000	0.002	0.002	0.000	0.002	0.006	0.003	0.002	0.002	0.002	0.001	0.000	0.007	0.004	0.005	0.001
512.00	0.000	0.002	0.002	0.000	0.002	0.006	0.003	0.002	0.002	0.002	0.001	0.000	0.007	0.004	0.005	0.001
513.00	-0.000	0.002	0.002	0.000	0.002	0.006	0.003	0.002	0.002	0.002	0.002	0.000	0.007	0.003	0.005	0.001
514.00	0.000	0.002	0.002	0.000	0.002	0.005	0.003	0.002	0.002	0.002	0.001	0.000	0.007	0.003	0.005	0.001
515.00	-0.000	0.002	0.002	0.000	0.002	0.005	0.003	0.002	0.002	0.002	0.001	0.000	0.007	0.003	0.005	0.001
516.00	-0.000	0.002	0.002	0.000	0.002	0.005	0.003	0.002	0.002	0.002	0.001	0.000	0.006	0.003	0.005	0.001
517.00	-0.000	0.002	0.002	0.000	0.002	0.005	0.003	0.002	0.002	0.002	0.001	0.000	0.006	0.003	0.005	0.001
518.00	-0.000	0.002	0.002	0.000	0.002	0.005	0.003	0.002	0.002	0.002	0.001	0.000	0.006	0.003	0.005	0.001
519.00	-0.000	0.002	0.002	0.000	0.002	0.005	0.003	0.002	0.002	0.002	0.001	0.000	0.006	0.003	0.005	0.001
520.00	-0.000	0.002	0.002	0.000	0.002	0.005	0.003	0.002	0.002	0.002	0.001	0.000	0.006	0.003	0.005	0.001
521.00	-0.000	0.002	0.002	0.000	0.002	0.005	0.003	0.002	0.002	0.001	0.001	0.000	0.006	0.003	0.005	0.001
522.00	-0.000	0.002	0.002	0.000	0.002	0.005	0.002	0.002	0.002	0.001	0.001	0.000	0.006	0.003	0.004	0.001
523.00	-0.000	0.002	0.002	0.000	0.002	0.005	0.002	0.002	0.002	0.001	0.001	0.000	0.006	0.003	0.004	0.001
524.00	-0.000	0.002	0.002	0.000	0.002	0.005	0.002	0.002	0.002	0.001	0.001	0.000	0.006	0.003	0.004	0.001
525.00	-0.000	0.002	0.002	0.000	0.002	0.005	0.002	0.002	0.002	0.001	0.001	0.000	0.006	0.003	0.004	0.001
526.00	0.000	0.002	0.002	0.000	0.002	0.005	0.003	0.002	0.002	0.002	0.001	0.000	0.006	0.003	0.005	0.001
527.00	0.000	0.002	0.002	0.000	0.002	0.005	0.003	0.002	0.002	0.001	0.001	0.000	0.006	0.003	0.004	0.001
528.00	0.000	0.002	0.002	0.000	0.002	0.005	0.002	0.002	0.002	0.001	0.001	0.000	0.006	0.003	0.004	0.001
529.00	-0.000	0.002	0.002	0.000	0.002	0.005	0.002	0.002	0.002	0.001	0.001	0.000	0.006	0.003	0.004	0.001
530.00	-0.000	0.002	0.002	0.000	0.002	0.005	0.002	0.002	0.002	0.001	0.001	0.000	0.006	0.003	0.004	0.001
531.00	-0.000	0.002	0.002	0.000	0.002	0.005	0.002	0.002	0.002	0.001	0.001	0.000	0.006	0.003	0.004	0.001
532.00	-0.000	0.002	0.002	0.000	0.002	0.005	0.002	0.002	0.002	0.001	0.001	0.000	0.006	0.003	0.004	0.001
533.00	-0.000	0.002	0.002	0.000	0.002	0.005	0.002	0.002	0.002	0.001	0.001	0.000	0.006	0.003	0.004	0.001
534.00	-0.000	0.002	0.002	0.000	0.002	0.005	0.002	0.002	0.002	0.001	0.001	0.000	0.006	0.003	0.004	0.001
535.00	0.000	0.002	0.002	0.001	0.002	0.005	0.003	0.002	0.002	0.002	0.001	0.000	0.006	0.003	0.005	0.001
536.00	0.001	0.003	0.003	0.001	0.003	0.006	0.003	0.003	0.003	0.002	0.002	0.001	0.007	0.004	0.005	0.001
537.00	0.000	0.002	0.002	0.001	0.002	0.005	0.003	0.002	0.002	0.001	0.001	0.000	0.006	0.003	0.004	0.001
538.00	-0.000	0.002	0.002	0.000	0.002	0.005	0.002	0.002	0.002	0.001	0.001	0.000	0.006	0.003	0.004	0.000
539.00	-0.000	0.002	0.002	0.000	0.002	0.005	0.002	0.002	0.002	0.001	0.001	0.000	0.006	0.003	0.004	0.000
540.00	-0.000	0.002	0.002	0.000	0.002	0.005	0.002	0.002	0.002	0.001	0.001	0.000	0.006	0.003	0.004	0.000
541.00	-0.000	0.002	0.002	0.000	0.002	0.005	0.002	0.002	0.001	0.001	0.001	0.000	0.006	0.003	0.004	0.000
542.00	-0.000	0.002	0.002	0.000	0.002	0.005	0.002	0.002	0.001	0.001	0.001	0.000	0.006	0.003	0.004	0.000
543.00	0.000	0.002	0.002	0.000	0.002	0.005	0.002	0.002	0.001	0.001	0.001	0.000	0.006	0.003	0.004	0.000
544.00	-0.000	0.002	0.002	0.000	0.002	0.005	0.002	0.002	0.002	0.001	0.001	0.000	0.006	0.003	0.004	0.000
545.00	0.000	0.002	0.002	0.000	0.002	0.005	0.002	0.002	0.002	0.001	0.001	0.000	0.006	0.003	0.004	0.000
546.00	-0.000	0.002	0.002	0.000	0.002	0.005	0.002	0.002	0.001	0.001	0.001	0.000	0.006	0.003	0.004	0.000
547.00	-0.000	0.002	0.002	0.000	0.002	0.005	0.002	0.002	0.001	0.001	0.001	0.000	0.006	0.003	0.004	0.000
548.00	0.000	0.002	0.002	0.000	0.002	0.005	0.002	0.002	0.001	0.001	0.001	0.000	0.006	0.003	0.004	0.000
549.00	0.000	0.002	0.002	0.000	0.002	0.005	0.002	0.002	0.001	0.001	0.001	0.000	0.006	0.003	0.004	0.000
550.00	-0.000	0.002	0.002	0.000	0.002	0.005	0.002	0.002	0.001	0.001	0.001	0.000	0.006	0.003	0.004	0.000
551.00	0.000	0.002	0.002	0.000	0.002	0.005	0.002	0.002	0.001	0.001	0.001	0.000	0.006	0.003	0.004	0.000
552.00	0.000	0.002	0.002	0.000	0.002	0.005	0.002	0.002	0.001	0.001	0.001	0.000	0.006	0.003	0.004	0.000
553.00	0.000	0.002	0.002	0.000	0.002	0.005	0.002	0.002	0.001	0.001	0.001	0.000	0.006	0.003	0.004	0.000
554.00	0.000	0.002	0.002	0.000	0.002	0.005	0.002	0.002	0.001	0.001	0.001	0.000	0.006	0.003	0.004	0.000
555.00	0.000	0.002	0.002	0.000	0.002	0.005	0.002	0.002	0.001	0.001	0.001	0.000	0.006	0.003	0.004	0.000
556.00	0.000	0.002	0.002	0.000	0.002	0.005	0.002	0.002	0.001	0.001	0.001	0.000	0.006	0.003	0.004	0.000
557.00	0.000	0.002	0.002	0.000	0.002	0.005	0.002	0.002	0.001	0.001	0.001	0.000	0.006	0.002	0.004	0.000
558.00	0.000	0.002	0.002	0.000	0.002	0.005	0.002	0.002	0.001	0.001	0.001	0.000	0.006	0.002	0.004	0.000
559.00	0.000	0.002	0.002	0.000	0.002	0.005	0.002	0.002	0.001	0.001	0.001	0.000	0.006	0.002	0.004	0.000
560.00	-0.000	0.001	0.001	0.000	0.002	0.005	0.002	0.002	0.001	0.001	0.001	0.000	0.006	0.002	0.004	0.000
561.00	-0.000	0.002	0.002	0.000	0.002	0.005	0.002	0.002	0.001	0.001	0.001	0.000	0.006	0.002	0.004	0.000
562.00	0.000	0.002	0.002	0.000	0.002	0.005	0.002	0.002	0.001	0.001	0.001	0.000	0.006	0.002	0.004	0.000
563.00	0.000	0.002	0.002	0.000	0.002	0.005	0.002	0.002	0.001	0.001	0.001	0.000	0.006	0.002	0.004	0.000
564.00	0.000	0.002	0.002	0.000	0.002	0.005	0.002	0.002	0.001	0.001	0.001	0.000	0.006	0.002	0.004	0.000
565.00	0.000	0.002	0.002	0.000	0.002	0.005	0.002	0.002	0.001	0.001	0.001	0.000	0.006	0.003	0.004	0.001
566.00	0.000	0.002	0.002	0.000	0.002	0.005	0.002	0.002	0.001	0.001	0.001	0.000	0.006	0.003	0.004	0.001
567.00	0.000	0.002	0.002	0.000	0.002	0.005	0.002	0.002	0.001	0.001	0.001	0.000	0.006	0.002	0.004	0.000
568.00	0.000	0.002	0.002	0.000	0.002	0.005	0.002	0.002	0.001	0.001	0.001	0.000	0.006	0.002	0.004	0.001
569.00	0.000	0.002	0.002	0.000	0.002	0.005	0.002	0.002	0.001	0.001	0.001	0.000	0.006	0.002	0.004	0.000
570.00	0.000	0.002	0.002	0.000	0.002	0.005	0.002	0.002	0.001	0.001	0.001	0.000	0.006	0.002	0.004	0.000
571.00	0.000	0.002	0.002	0.000	0.002	0.005	0.002	0.002	0.001	0.001	0.001	0.000	0.006	0.002	0.003	0.000
572.00	0.000	0.001	0.001	0.000	0.002	0.005	0.002	0.002	0.001	0.001	0.001	0.000	0.006	0.002	0.004	0.000
573.00	0.000	0.002	0.002	0.000	0.002	0.005	0.002	0.002	0.001	0.001	0.001	0.000	0.006	0.002	0.004	0.001
574.00	-0.000	0.002	0.001	0.000	0.002	0.005	0.002	0.002	0.001	0.001	0.001	0.000	0.006	0.002	0.003	0.000
575.00	-0.000	0.001	0.001	0.000	0.002	0.004	0.002	0.002	0.001	0.001	0.001	0.000	0.006	0.002	0.003	0.000
576.00	-0.000	0.001	0.001	0.000	0.002	0.004	0.002	0.002	0.001	0.001	0.001	0.000	0.006	0.002	0.003	0.000
577.00	0.000	0.002	0.002	0.000	0.002	0.004	0.002	0.002	0.001	0.001	0.001	0.000	0.006	0.002	0.003	0.000
578.00	0.000	0.002	0.002	0.000	0.002	0.005	0.002	0.002	0.001	0.001	0.001	0.000	0.006	0.002	0.003	0.000
579.00	-0.000	0.002	0.002	0.000	0.002	0.005	0.002	0.002	0.001	0.001	0.001	0.000	0.006	0.002	0.003	0.000
580.00	-0.000	0.001	0.001	0.000	0.002	0.004	0.002	0.002	0.001	0.001	0.001	0.000	0.006	0.002	0.003	0.000
581.00	0.000	0.001	0.001	0.000	0.002	0.004	0.002	0.002	0.001	0.001	0.001	0.000	0.005	0.002	0.003	0.000
582.00	0.000	0.001	0.001	0.000	0.002	0.004	0.002	0.002	0.001	0.001	0.001	0.000	0.005	0.002	0.003	0.000
583.00	0.000	0.001	0.001	0.000	0.002	0.004	0.002	0.002	0.001	0.001	0.001	0.000	0.005	0.002	0.003	0.000
584.00	0.000	0.001	0.001	0.000	0.002	0.004	0.002	0.002	0.001	0.001	0.001	0.000	0.006	0.002	0.003	0.000
585.00	0.000	0.001	0.001	0.000	0.002	0.004	0.002	0.002	0.001	0.001	0.001	0.000	0.006	0.002	0.003	0.000
586.00	0.000	0.002	0.002	0.000	0.002	0.004	0.002	0.002	0.001	0.001	0.001	0.000	0.006	0.002	0.003	0.001
587.00	0.000	0.002	0.002	0.000	0.002	0.004	0.002	0.002	0.001	0.001	0.001	0.000	0.006	0.002	0.003	0.001
588.00	0.000	0.002	0.001	0.000	0.002	0.004	0.002	0.002	0.001	0.001	0.001	0.000	0.005	0.002	0.003	0.001
589.00	0.000	0.002	0.002	0.000	0.002	0.004	0.002	0.002	0.001	0.001	0.001	0.000	0.005	0.002	0.003	0.001
590.00	0.000	0.001	0.001	0.000	0.002	0.004	0.002	0.002	0.001	0.001	0.001	0.000	0.005	0.002	0.003	0.000
591.00	0.000	0.001	0.001	0.000	0.001	0.004	0.002	0.002	0.001	0.001	0.001	0.000	0.005	0.002	0.003	0.000
592.00	0.000	0.001	0.001	0.000	0.001	0.004	0.002	0.002	0.001	0.001	0.001	0.000	0.005	0.002	0.003	0.000
593.00	0.000	0.001	0.001	0.000	0.002	0.004	0.002	0.002	0.001	0.001	0.001	0.000	0.005	0.002	0.003	0.000
594.00	-0.000	0.001	0.001	0.000	0.002	0.004	0.002	0.002	0.001	0.001	0.001	0.000	0.005	0.002	0.003	0.000
595.00	0.000	0.001	0.001	0.000	0.002	0.004	0.002	0.002	0.001	0.001	0.001	0.000	0.005	0.002	0.003	0.000
596.00	0.000	0.001	0.001	0.000	0.002	0.004	0.002	0.002	0.001	0.001	0.001	0.000	0.005	0.002	0.003	0.000
597.00	-0.000	0.001	0.001	0.000	0.002	0.004	0.002	0.002	0.001	0.001	0.001	0.000	0.005	0.002	0.003	0.000
598.00	-0.000	0.001	0.001	0.000	0.001	0.004	0.002	0.002	0.001	0.001	0.001	0.000	0.005	0.002	0.003	0.000
599.00	-0.000	0.001	0.001	0.000	0.002	0.004	0.002	0.002	0.001	0.001	0.001	0.000	0.005	0.002	0.003	0.000
600.00	0.000	0.001	0.002	0.000	0.002	0.004	0.002	0.002	0.001	0.001	0.001	0.000	0.005	0.002	0.003	0.000
601.00	0.000	0.001	0.001	0.000	0.001	0.004	0.002	0.002	0.001	0.001	0.001	0.000	0.005	0.002	0.003	0.000
602.00	0.000	0.001	0.001	0.000	0.001	0.004	0.002	0.002	0.001	0.001	0.001	0.000	0.005	0.002	0.003	0.000
603.00	0.000	0.001	0.001	0.000	0.001	0.004	0.002	0.002	0.001	0.001	0.001	0.000	0.005	0.002	0.003	0.000
604.00	-0.000	0.001	0.001	0.000	0.001	0.004	0.002	0.001	0.001	0.001	0.001	0.000	0.005	0.002	0.003	0.000
605.00	0.000	0.001	0.001	0.000	0.001	0.004	0.002	0.001	0.001	0.001	0.001	0.000	0.005	0.002	0.003	0.000
606.00	0.000	0.001	0.001	0.000	0.001	0.004	0.002	0.001	0.001	0.001	0.001	0.000	0.005	0.002	0.003	0.000
607.00	0.000	0.001	0.001	0.000	0.001	0.004	0.002	0.001	0.001	0.001	0.001	0.000	0.005	0.002	0.003	0.000
608.00	-0.000	0.001	0.001	0.000	0.001	0.004	0.002	0.001	0.001	0.001	0.001	0.000	0.005	0.002	0.003	0.000
609.00	-0.000	0.001	0.001	0.000	0.001	0.004	0.002	0.001	0.001	0.001	0.001	0.000	0.005	0.002	0.003	0.000
610.00	-0.000	0.001	0.001	0.000	0.001	0.004	0.002	0.001	0.001	0.001	0.001	0.000	0.005	0.002	0.003	0.000
611.00	0.000	0.001	0.001	0.000	0.001	0.004	0.002	0.001	0.001	0.001	0.001	0.000	0.005	0.002	0.003	0.000
612.00	0.000	0.001	0.001	0.000	0.001	0.004	0.002	0.001	0.001	0.001	0.001	0.000	0.005	0.002	0.003	0.000
613.00	0.000	0.001	0.001	0.000	0.001	0.004	0.002	0.001	0.001	0.001	0.001	0.000	0.005	0.002	0.003	0.000
614.00	-0.000	0.001	0.001	0.000	0.001	0.004	0.002	0.001	0.001	0.001	0.001	0.000	0.005	0.002	0.003	0.000
615.00	-0.000	0.001	0.001	0.000	0.001	0.004	0.002	0.001	0.001	0.001	0.001	0.000	0.005	0.002	0.003	0.000
616.00	0.000	0.001	0.001	0.000	0.001	0.004	0.002	0.001	0.001	0.001	0.001	0.000	0.005	0.002	0.003	0.000
617.00	0.000	0.001	0.001	0.000	0.002	0.004	0.002	0.001	0.001	0.001	0.001	0.000	0.005	0.002	0.003	0.000
618.00	-0.000	0.001	0.001	0.000	0.001	0.004	0.002	0.001	0.001	0.001	0.001	0.000	0.005	0.002	0.003	0.000
619.00	-0.000	0.001	0.001	0.000	0.001	0.004	0.002	0.001	0.001	0.001	0.001	0.000	0.005	0.002	0.003	0.000
620.00	0.000	0.001	0.001	0.000	0.001	0.004	0.002	0.001	0.001	0.001	0.001	0.000	0.005	0.002	0.003	0.000
621.00	0.000	0.001	0.001	0.000	0.001	0.004	0.002	0.001	0.001	0.001	0.001	0.000	0.005	0.002	0.003	0.000
622.00	0.000	0.001	0.001	0.000	0.001	0.004	0.002	0.001	0.001	0.001	0.001	0.000	0.005	0.002	0.003	0.000
623.00	0.000	0.001	0.001	0.000	0.001	0.004	0.002	0.001	0.001	0.001	0.001	0.000	0.005	0.002	0.003	0.000
624.00	-0.000	0.001	0.001	0.000	0.001	0.004	0.002	0.001	0.001	0.001	0.001	0.000	0.005	0.002	0.003	0.000
625.00	-0.000	0.001	0.001	0.000	0.001	0.004	0.002	0.001	0.001	0.001	0.001	0.000	0.005	0.002	0.003	0.000
626.00	-0.000	0.001	0.001	0.000	0.001	0.004	0.002	0.001	0.001	0.001	0.001	0.000	0.005	0.002	0.003	0.000
627.00	-0.000	0.001	0.001	0.000	0.001	0.004	0.002	0.001	0.001	0.001	0.001	-0.000	0.005	0.002	0.003	0.000
628.00	-0.000	0.001	0.001	0.000	0.001	0.004	0.002	0.001	0.001	0.001	0.001	0.000	0.005	0.002	0.003	0.000
629.00	-0.000	0.001	0.001	0.000	0.001	0.004	0.002	0.001	0.001	0.001	0.001	-0.000	0.005	0.002	0.003	0.000
630.00	-0.000	0.001	0.001	0.000	0.001	0.004	0.002	0.001	0.001	0.001	0.001	-0.000	0.005	0.002	0.003	0.000
631.00	-0.000	0.001	0.001	0.000	0.001	0.004	0.002	0.001	0.001	0.001	0.001	0.000	0.005	0.002	0.003	0.000
632.00	-0.000	0.001	0.001	0.000	0.001	0.004	0.002	0.001	0.001	0.001	0.001	0.000	0.005	0.002	0.003	0.000
633.00	-0.000	0.001	0.001	0.000	0.001	0.004	0.002	0.001	0.001	0.001	0.001	0.000	0.005	0.002	0.003	0.000
634.00	0.000	0.001	0.001	0.000	0.001	0.004	0.002	0.001	0.001	0.001	0.001	0.000	0.005	0.002	0.003	0.000
635.00	-0.000	0.001	0.001	0.000	0.001	0.004	0.002	0.001	0.001	0.001	0.001	0.000	0.005	0.002	0.003	0.000
636.00	0.000	0.001	0.001	0.000	0.001	0.004	0.002	0.001	0.001	0.001	0.001	0.000	0.005	0.002	0.003	0.000
637.00	0.000	0.001	0.001	0.000	0.001	0.004	0.002	0.001	0.001	0.001	0.001	0.000	0.005	0.002	0.003	0.000
638.00	-0.000	0.001	0.001	0.000	0.001	0.004	0.002	0.001	0.001	0.001	0.001	0.000	0.005	0.002	0.003	0.000
639.00	-0.000	0.001	0.001	0.000	0.001	0.004	0.002	0.001	0.001	0.001	0.001	-0.000	0.005	0.002	0.003	0.000
640.00	-0.000	0.001	0.001	0.000	0.001	0.004	0.002	0.001	0.001	0.001	0.001	-0.000	0.005	0.002	0.003	0.000
641.00	-0.000	0.001	0.001	0.000	0.001	0.004	0.002	0.001	0.001	0.001	0.001	-0.000	0.005	0.002	0.003	0.000
642.00	-0.000	0.001	0.001	0.000	0.001	0.004	0.002	0.001	0.001	0.001	0.001	0.000	0.005	0.002	0.003	0.000
643.00	-0.000	0.001	0.001	0.000	0.001	0.004	0.002	0.001	0.001	0.001	0.001	0.000	0.005	0.002	0.002	0.000
644.00	-0.000	0.001	0.001	0.000	0.001	0.004	0.002	0.001	0.001	0.001	0.001	0.000	0.005	0.002	0.003	0.000
645.00	-0.000	0.001	0.001	0.000	0.001	0.004	0.002	0.001	0.001	0.001	0.001	0.000	0.005	0.002	0.003	0.000
646.00	-0.000	0.001	0.001	0.000	0.001	0.004	0.002	0.001	0.001	0.001	0.001	0.000	0.005	0.002	0.003	0.000
647.00	-0.000	0.001	0.001	0.000	0.001	0.004	0.002	0.001	0.001	0.001	0.001	0.000	0.005	0.002	0.003	0.000
648.00	0.000	0.001	0.001	0.000	0.001	0.004	0.002	0.001	0.001	0.001	0.001	0.000	0.005	0.002	0.003	0.000
649.00	-0.000	0.001	0.001	0.000	0.001	0.004	0.002	0.001	0.001	0.001	0.001	0.000	0.005	0.002	0.003	0.000
650.00	-0.000	0.001	0.001	0.000	0.001	0.004	0.002	0.001	0.001	0.001	0.001	0.000	0.005	0.002	0.003	0.000
651.00	-0.000	0.001	0.001	0.000	0.001	0.004	0.002	0.001	0.001	0.001	0.001	0.000	0.005	0.002	0.003	0.000
652.00	-0.000	0.001	0.001	0.000	0.001	0.004	0.002	0.001	0.001	0.001	0.001	0.000	0.005	0.002	0.003	0.000
653.00	-0.000	0.001	0.001	0.000	0.001	0.004	0.002	0.001	0.001	0.001	0.001	0.000	0.005	0.002	0.003	0.000
654.00	-0.000	0.001	0.001	0.000	0.001	0.004	0.002	0.001	0.001	0.001	0.001	0.000	0.005	0.002	0.003	0.000
655.00	-0.000	0.001	0.001	0.000	0.001	0.004	0.002	0.001	0.001	0.001	0.001	0.000	0.005	0.002	0.003	0.000
656.00	-0.000	0.001	0.001	0.000	0.001	0.004	0.002	0.001	0.001	0.001	0.001	0.000	0.005	0.002	0.003	0.000
657.00	-0.000	0.001	0.001	0.000	0.001	0.004	0.002	0.001	0.001	0.001	0.001	0.000	0.005	0.002	0.003	0.000
658.00	-0.000	0.001	0.001	0.000	0.001	0.004	0.002	0.001	0.001	0.001	0.001	0.000	0.005	0.002	0.002	0.000
659.00	-0.000	0.001	0.001	0.000	0.001	0.004	0.002	0.001	0.001	0.001	0.001	0.000	0.005	0.002	0.002	0.000
660.00	-0.000	0.001	0.001	0.000	0.001	0.004	0.002	0.001	0.001	0.001	0.001	0.000	0.005	0.001	0.002	0.000
661.00	-0.000	0.001	0.001	0.000	0.001	0.004	0.002	0.001	0.001	0.001	0.001	0.000	0.005	0.002	0.002	0.000
662.00	-0.000	0.001	0.001	0.000	0.001	0.004	0.002	0.001	0.001	0.001	0.001	0.000	0.005	0.002	0.003	0.000
663.00	0.000	0.001	0.001	0.000	0.001	0.004	0.002	0.001	0.001	0.001	0.001	0.000	0.005	0.002	0.003	0.000
664.00	0.000	0.001	0.001	0.000	0.001	0.004	0.002	0.001	0.001	0.001	0.001	0.000	0.005	0.002	0.003	0.000
665.00	-0.000	0.001	0.001	0.000	0.001	0.004	0.002	0.001	0.001	0.001	0.001	0.000	0.005	0.002	0.002	0.000
666.00	-0.000	0.001	0.001	0.000	0.001	0.004	0.002	0.001	0.001	0.001	0.001	0.000	0.005	0.002	0.002	0.000
667.00	-0.000	0.001	0.001	0.000	0.001	0.004	0.002	0.001	0.001	0.001	0.001	0.000	0.005	0.002	0.003	0.000
668.00	-0.000	0.001	0.001	0.000	0.001	0.004	0.002	0.001	0.001	0.001	0.001	0.000	0.005	0.002	0.002	0.000
669.00	-0.000	0.001	0.001	0.000	0.001	0.004	0.002	0.001	0.001	0.001	0.001	0.000	0.005	0.001	0.002	0.000
670.00	-0.000	0.001	0.001	0.000	0.001	0.004	0.002	0.001	0.001	0.001	0.001	0.000	0.005	0.002	0.003	0.000
671.00	-0.000	0.001	0.001	0.000	0.001	0.004	0.002	0.001	0.001	0.001	0.001	0.000	0.005	0.002	0.002	0.000
672.00	-0.000	0.001	0.001	0.000	0.001	0.004	0.002	0.001	0.001	0.001	0.001	0.000	0.005	0.002	0.002	0.000
673.00	0.000	0.001	0.001	0.000	0.001	0.004	0.002	0.001	0.001	0.001	0.001	0.000	0.005	0.002	0.003	0.000
674.00	-0.000	0.001	0.001	0.000	0.001	0.004	0.002	0.001	0.001	0.001	0.001	0.000	0.005	0.002	0.003	0.000
675.00	-0.000	0.001	0.001	0.000	0.001	0.004	0.002	0.001	0.001	0.001	0.001	0.000	0.005	0.002	0.002	0.000
676.00	-0.000	0.001	0.001	0.000	0.001	0.004	0.002	0.001	0.001	0.001	0.001	0.000	0.005	0.002	0.002	0.000
677.00	-0.000	0.001	0.001	0.000	0.001	0.004	0.002	0.001	0.001	0.001	0.001	0.000	0.005	0.002	0.002	0.000
678.00	-0.000	0.001	0.001	0.000	0.001	0.004	0.002	0.001	0.001	0.001	0.001	0.000	0.005	0.002	0.002	0.000
679.00	-0.000	0.001	0.001	0.000	0.001	0.004	0.002	0.001	0.001	0.001	0.001	0.000	0.005	0.002	0.002	0.001
680.00	-0.000	0.001	0.001	0.000	0.001	0.004	0.002	0.001	0.001	0.001	0.001	0.000	0.005	0.002	0.002	0.001
681.00	-0.000	0.001	0.001	0.000	0.001	0.004	0.002	0.001	0.001	0.001	0.001	0.000	0.005	0.002	0.002	0.000
682.00	-0.000	0.001	0.001	0.000	0.001	0.004	0.002	0.001	0.001	0.001	0.001	0.000	0.005	0.001	0.002	0.000
683.00	-0.000	0.001	0.001	0.000	0.001	0.004	0.002	0.001	0.001	0.001	0.001	0.000	0.005	0.001	0.002	0.000
684.00	-0.000	0.001	0.001	0.000	0.001	0.004	0.002	0.001	0.001	0.001	0.001	0.000	0.005	0.002	0.002	0.000
685.00	-0.000	0.001	0.001	0.000	0.001	0.004	0.002	0.001	0.001	0.001	0.001	0.000	0.005	0.002	0.002	0.000
686.00	-0.000	0.001	0.001	0.000	0.001	0.004	0.002	0.001	0.001	0.001	0.001	0.000	0.005	0.002	0.002	0.001
687.00	-0.000	0.001	0.001	0.000	0.001	0.004	0.002	0.001	0.001	0.001	0.001	0.000	0.005	0.001	0.002	0.000
688.00	-0.000	0.001	0.001	0.000	0.001	0.004	0.002	0.001	0.001	0.001	0.001	0.000	0.005	0.001	0.002	0.000
689.00	-0.000	0.001	0.001	0.000	0.001	0.004	0.002	0.001	0.001	0.001	0.001	0.000	0.005	0.001	0.002	0.000
690.00	-0.000	0.001	0.001	0.000	0.001	0.004	0.002	0.001	0.001	0.001	0.001	0.000	0.005	0.001	0.002	0.000
691.00	-0.000	0.001	0.001	0.000	0.001	0.004	0.002	0.001	0.001	0.001	0.001	0.000	0.005	0.001	0.002	0.000
692.00	-0.000	0.001	0.001	0.000	0.001	0.004	0.002	0.001	0.001	0.001	0.001	0.000	0.005	0.001	0.002	0.000
693.00	-0.000	0.001	0.001	0.000	0.001	0.004	0.002	0.001	0.001	0.001	0.001	0.000	0.005	0.001	0.002	0.000
694.00	-0.000	0.001	0.001	0.000	0.001	0.004	0.002	0.001	0.001	0.001	0.001	0.000	0.005	0.001	0.002	0.000
695.00	-0.000	0.001	0.001	0.000	0.001	0.004	0.002	0.001	0.001	0.001	0.001	0.000	0.005	0.001	0.002	0.000
696.00	-0.000	0.001	0.001	0.000	0.001	0.004	0.002	0.001	0.001	0.001	0.001	0.000	0.005	0.001	0.002	0.000
697.00	-0.000	0.001	0.001	0.000	0.001	0.004	0.002	0.001	0.001	0.001	0.001	0.000	0.005	0.001	0.002	0.000
698.00	-0.000	0.001	0.001	0.000	0.001	0.004	0.002	0.001	0.001	0.001	0.001	0.000	0.005	0.001	0.002	0.000
699.00	-0.000	0.001	0.001	0.000	0.001	0.004	0.002	0.001	0.001	0.001	0.001	0.000	0.005	0.001	0.002	0.000
700.00	-0.000	0.001	0.001	0.000	0.001	0.004	0.002	0.001	0.001	0.001	0.001	0.000	0.005	0.001	0.002	0.000
701.00	-0.000	0.001	0.001	0.000	0.001	0.004	0.002	0.001	0.001	0.001	0.001	0.000	0.005	0.001	0.002	0.000
702.00	-0.000	0.001	0.001	0.000	0.001	0.004	0.002	0.001	0.001	0.001	0.001	0.000	0.005	0.001	0.002	0.000
703.00	-0.000	0.001	0.001	0.000	0.001	0.004	0.002	0.001	0.001	0.001	0.001	0.000	0.005	0.001	0.002	0.000
704.00	-0.000	0.001	0.001	0.000	0.001	0.004	0.002	0.001	0.001	0.001	0.001	0.000	0.005	0.001	0.002	0.000
705.00	-0.000	0.001	0.001	0.000	0.001	0.004	0.002	0.001	0.001	0.001	0.001	0.000	0.005	0.001	0.002	0.000
706.00	-0.000	0.001	0.001	0.000	0.001	0.004	0.002	0.001	0.001	0.001	0.001	0.000	0.005	0.001	0.002	0.000
707.00	-0.000	0.001	0.001	0.000	0.001	0.004	0.002	0.001	0.001	0.001	0.001	0.000	0.005	0.001	0.002	0.000
708.00	-0.000	0.001	0.001	0.000	0.001	0.004	0.002	0.001	0.001	0.001	0.001	0.000	0.005	0.001	0.002	0.000
709.00	-0.000	0.001	0.001	0.000	0.001	0.004	0.002	0.001	0.001	0.001	0.001	0.000	0.005	0.001	0.002	0.000
710.00	-0.000	0.001	0.001	0.000	0.001	0.004	0.002	0.001	0.001	0.001	0.001	0.000	0.005	0.001	0.002	0.000
711.00	-0.000	0.001	0.001	0.000	0.001	0.004	0.002	0.001	0.001	0.001	0.001	0.000	0.005	0.001	0.002	0.000
712.00	-0.000	0.001	0.001	0.000	0.001	0.004	0.002	0.001	0.001	0.001	0.001	0.000	0.005	0.001	0.002	0.000
713.00	-0.000	0.001	0.001	0.000	0.001	0.004	0.002	0.001	0.001	0.001	0.001	0.000	0.005	0.001	0.002	0.000
714.00	-0.000	0.001	0.001	0.000	0.001	0.004	0.002	0.001	0.001	0.001	0.001	0.000	0.005	0.001	0.002	0.000
715.00	-0.000	0.001	0.001	0.000	0.001	0.004	0.002	0.001	0.001	0.001	0.001	0.000	0.005	0.001	0.002	0.000
716.00	-0.000	0.001	0.001	0.000	0.001	0.004	0.002	0.001	0.001	0.001	0.001	0.000	0.004	0.001	0.002	0.000
717.00	-0.000	0.001	0.001	0.000	0.001	0.004	0.002	0.001	0.001	0.001	0.001	0.000	0.005	0.001	0.002	0.000
718.00	-0.000	0.001	0.001	0.000	0.001	0.004	0.002	0.001	0.001	0.001	0.001	0.000	0.005	0.001	0.002	0.000
719.00	-0.000	0.001	0.001	0.000	0.001	0.004	0.002	0.001	0.001	0.001	0.001	0.000	0.005	0.001	0.002	0.000
720.00	-0.000	0.001	0.001	0.000	0.001	0.004	0.002	0.001	0.001	0.001	0.001	0.000	0.005	0.001	0.002	0.000
721.00	-0.000	0.001	0.001	0.000	0.001	0.004	0.002	0.001	0.001	0.001	0.001	0.000	0.005	0.001	0.002	0.000
722.00	-0.000	0.001	0.001	0.000	0.001	0.003	0.001	0.001	0.001	0.001	0.001	0.000	0.004	0.001	0.002	0.000
723.00	-0.000	0.001	0.001	0.000	0.001	0.004	0.002	0.001	0.001	0.001	0.001	0.000	0.004	0.001	0.002	0.000
724.00	-0.000	0.001	0.001	0.000	0.001	0.004	0.001	0.001	0.001	0.001	0.001	0.000	0.004	0.001	0.002	0.000
725.00	-0.000	0.001	0.001	0.000	0.001	0.003	0.001	0.001	0.001	0.001	0.001	0.000	0.004	0.001	0.002	0.000
726.00	-0.000	0.001	0.001	0.000	0.001	0.003	0.001	0.001	0.001	0.001	0.001	0.000	0.004	0.001	0.002	0.000
727.00	-0.000	0.001	0.001	0.000	0.001	0.003	0.001	0.001	0.001	0.001	0.001	0.000	0.004	0.001	0.002	0.000
728.00	-0.000	0.001	0.001	0.000	0.001	0.004	0.002	0.001	0.001	0.001	0.001	0.000	0.004	0.001	0.002	0.000
729.00	-0.000	0.001	0.001	0.000	0.001	0.004	0.002	0.001	0.001	0.001	0.001	0.000	0.004	0.001	0.002	0.000
730.00	-0.000	0.001	0.001	0.000	0.001	0.004	0.002	0.001	0.001	0.001	0.001	0.000	0.004	0.001	0.002	0.000
731.00	-0.000	0.001	0.001	0.000	0.001	0.004	0.002	0.001	0.001	0.001	0.001	0.000	0.004	0.001	0.002	0.000
732.00	-0.000	0.001	0.001	0.000	0.001	0.003	0.001	0.001	0.001	0.001	0.001	0.000	0.004	0.001	0.002	0.000
733.00	-0.000	0.001	0.001	0.000	0.001	0.003	0.001	0.001	0.001	0.001	0.001	0.000	0.004	0.001	0.002	0.000
734.00	-0.000	0.001	0.001	0.000	0.001	0.003	0.001	0.001	0.001	0.001	0.001	0.000	0.004	0.001	0.002	0.000
735.00	-0.000	0.001	0.001	0.000	0.001	0.003	0.001	0.001	0.001	0.001	0.001	0.000	0.004	0.001	0.002	0.000
736.00	-0.000	0.001	0.001	0.000	0.001	0.003	0.001	0.001	0.001	0.001	0.001	0.000	0.004	0.001	0.002	0.000
737.00	-0.000	0.001	0.001	0.000	0.001	0.003	0.001	0.001	0.001	0.001	0.001	0.000	0.004	0.001	0.002	0.000
738.00	-0.000	0.001	0.001	0.000	0.001	0.003	0.001	0.001	0.001	0.001	0.001	0.000	0.004	0.001	0.002	0.000
739.00	-0.000	0.001	0.001	0.000	0.001	0.003	0.001	0.001	0.001	0.001	0.001	0.000	0.004	0.001	0.002	0.000
740.00	-0.000	0.001	0.001	0.000	0.001	0.003	0.001	0.001	0.001	0.001	0.001	0.000	0.004	0.001	0.002	0.000
741.00	-0.000	0.001	0.001	0.000	0.001	0.003	0.001	0.001	0.001	0.001	0.001	0.000	0.004	0.001	0.002	0.000
742.00	-0.000	0.001	0.001	0.000	0.001	0.003	0.001	0.001	0.001	0.001	0.001	0.000	0.004	0.001	0.002	0.000
743.00	-0.000	0.001	0.001	0.000	0.001	0.003	0.001	0.001	0.001	0.001	0.001	0.000	0.004	0.001	0.002	0.000
744.00	-0.000	0.001	0.001	0.000	0.001	0.003	0.001	0.001	0.001	0.001	0.001	0.000	0.004	0.001	0.002	0.000
745.00	-0.000	0.001	0.001	0.000	0.001	0.003	0.001	0.001	0.001	0.001	0.001	0.000	0.004	0.001	0.002	0.000
746.00	-0.000	0.001	0.001	0.000	0.001	0.003	0.001	0.001	0.001	0.001	0.001	0.000	0.004	0.001	0.002	0.000
747.00	-0.000	0.001	0.001	0.000	0.001	0.003	0.001	0.001	0.001	0.001	0.001	0.000	0.004	0.001	0.002	0.000
748.00	-0.000	0.001	0.001	0.000	0.001	0.003	0.001	0.001	0.001	0.001	0.001	0.000	0.004	0.001	0.002	0.000
749.00	-0.000	0.001	0.001	0.000	0.001	0.003	0.001	0.001	0.001	0.001	0.001	0.000	0.004	0.001	0.002	0.000
750.00	-0.000	0.001	0.001	0.000	0.001	0.003	0.001	0.001	0.001	0.001	0.001	0.000	0.004	0.001	0.002	0.000
751.00	-0.000	0.001	0.001	0.000	0.001	0.003	0.001	0.001	0.001	0.001	0.001	0.000	0.004	0.001	0.002	0.000
752.00	-0.000	0.001	0.001	0.000	0.001	0.003	0.001	0.001	0.001	0.001	0.001	0.000	0.004	0.001	0.002	0.000
753.00	-0.000	0.001	0.001	0.000	0.001	0.003	0.001	0.001	0.001	0.001	0.001	0.000	0.004	0.001	0.002	0.000
754.00	-0.000	0.001	0.001	0.000	0.001	0.003	0.002	0.001	0.001	0.001	0.001	0.000	0.004	0.001	0.002	0.000
755.00	-0.000	0.001	0.001	0.000	0.001	0.003	0.001	0.001	0.001	0.001	0.001	0.000	0.004	0.001	0.002	0.000
756.00	-0.000	0.001	0.001	0.000	0.001	0.003	0.001	0.001	0.001	0.001	0.001	0.000	0.004	0.001	0.002	0.000
757.00	-0.000	0.001	0.001	0.000	0.001	0.003	0.001	0.001	0.001	0.001	0.001	0.000	0.004	0.001	0.002	0.000
758.00	-0.000	0.001	0.001	0.000	0.001	0.003	0.002	0.001	0.001	0.001	0.001	0.000	0.004	0.001	0.002	0.000
759.00	-0.000	0.001	0.001	0.000	0.001	0.004	0.002	0.001	0.001	0.001	0.001	0.000	0.004	0.001	0.002	0.001
760.00	0.001	0.002	0.002	0.001	0.002	0.004	0.003	0.002	0.002	0.002	0.002	0.001	0.005	0.002	0.003	0.001
761.00	-0.000	0.001	0.001	0.000	0.001	0.004	0.002	0.001	0.001	0.001	0.001	0.000	0.005	0.002	0.002	0.001
762.00	-0.000	0.001	0.001	0.000	0.001	0.004	0.002	0.001	0.001	0.001	0.001	0.000	0.004	0.001	0.002	0.000
763.00	-0.000	0.001	0.001	0.000	0.001	0.004	0.002	0.001	0.001	0.001	0.001	0.000	0.004	0.001	0.002	0.000
764.00	-0.000	0.001	0.001	0.000	0.001	0.004	0.002	0.001	0.001	0.001	0.001	0.000	0.004	0.001	0.002	0.000
765.00	-0.000	0.001	0.001	0.000	0.001	0.003	0.002	0.001	0.001	0.001	0.001	0.000	0.004	0.001	0.002	0.000
766.00	-0.000	0.001	0.001	0.000	0.001	0.003	0.002	0.001	0.001	0.001	0.001	0.000	0.004	0.001	0.002	0.000
767.00	-0.000	0.001	0.001	0.000	0.001	0.003	0.002	0.001	0.001	0.001	0.001	0.000	0.004	0.001	0.002	0.000
768.00	-0.000	0.001	0.001	0.000	0.001	0.003	0.002	0.001	0.001	0.001	0.001	0.000	0.004	0.001	0.002	0.000
769.00	-0.000	0.001	0.001	0.000	0.001	0.003	0.002	0.001	0.001	0.001	0.001	0.000	0.004	0.001	0.002	0.000
770.00	-0.000	0.001	0.001	0.000	0.001	0.003	0.002	0.001	0.001	0.001	0.001	0.000	0.004	0.001	0.002	0.000
771.00	-0.000	0.001	0.001	0.000	0.001	0.004	0.002	0.001	0.001	0.001	0.001	0.000	0.004	0.001	0.002	0.000
772.00	-0.000	0.001	0.001	0.000	0.001	0.004	0.002	0.001	0.001	0.001	0.001	0.000	0.004	0.001	0.002	0.000
773.00	-0.000	0.001	0.001	0.000	0.001	0.004	0.002	0.001	0.001	0.001	0.001	0.000	0.004	0.001	0.002	0.001
774.00	-0.000	0.001	0.001	0.000	0.001	0.004	0.002	0.001	0.001	0.001	0.001	0.000	0.004	0.001	0.002	0.001
775.00	-0.000	0.001	0.001	0.000	0.001	0.003	0.002	0.001	0.001	0.001	0.001	0.000	0.004	0.001	0.002	0.000
776.00	-0.000	0.001	0.001	0.000	0.001	0.004	0.002	0.001	0.001	0.001	0.001	0.000	0.004	0.001	0.002	0.000
777.00	-0.000	0.001	0.001	0.000	0.001	0.004	0.002	0.001	0.001	0.001	0.001	0.000	0.004	0.001	0.002	0.001
778.00	-0.000	0.001	0.001	0.000	0.001	0.004	0.002	0.001	0.001	0.001	0.001	0.000	0.004	0.001	0.002	0.000
779.00	-0.000	0.001	0.001	0.000	0.001	0.004	0.002	0.001	0.001	0.001	0.001	0.000	0.004	0.001	0.002	0.000
780.00	-0.000	0.001	0.001	0.000	0.001	0.003	0.002	0.001	0.001	0.001	0.001	0.000	0.004	0.001	0.002	0.001
781.00	-0.000	0.001	0.001	0.000	0.001	0.003	0.002	0.001	0.001	0.001	0.001	0.000	0.004	0.001	0.002	0.000
782.00	-0.000	0.001	0.001	0.000	0.001	0.003	0.002	0.001	0.001	0.001	0.001	0.000	0.004	0.001	0.002	0.001
783.00	-0.000	0.001	0.001	0.000	0.001	0.003	0.002	0.001	0.001	0.001	0.001	0.000	0.004	0.001	0.002	0.000
784.00	-0.000	0.001	0.001	0.000	0.001	0.004	0.002	0.001	0.001	0.001	0.001	0.000	0.004	0.001	0.002	0.000
785.00	-0.000	0.001	0.001	0.000	0.001	0.004	0.002	0.001	0.001	0.001	0.001	0.000	0.004	0.001	0.002	0.001
786.00	-0.000	0.001	0.001	0.000	0.001	0.004	0.002	0.001	0.001	0.001	0.001	0.000	0.004	0.001	0.002	0.001
787.00	-0.000	0.001	0.001	0.000	0.001	0.003	0.002	0.001	0.001	0.001	0.001	0.000	0.004	0.001	0.002	0.001
788.00	-0.000	0.001	0.001	0.000	0.001	0.004	0.002	0.001	0.001	0.001	0.001	0.000	0.004	0.001	0.002	0.001
789.00	-0.000	0.001	0.001	0.001	0.001	0.004	0.002	0.002	0.001	0.001	0.001	0.000	0.004	0.001	0.002	0.001
790.00	-0.000	0.001	0.001	0.001	0.001	0.004	0.002	0.001	0.001	0.001	0.001	0.000	0.004	0.001	0.002	0.001
791.00	-0.000	0.001	0.001	0.001	0.001	0.004	0.002	0.001	0.001	0.001	0.001	0.000	0.004	0.001	0.002	0.001
792.00	-0.000	0.001	0.001	0.000	0.001	0.004	0.002	0.001	0.001	0.001	0.001	0.000	0.004	0.001	0.002	0.001
793.00	-0.000	0.001	0.001	0.000	0.001	0.003	0.002	0.001	0.001	0.001	0.001	0.000	0.004	0.001	0.002	0.001
794.00	-0.000	0.001	0.001	0.000	0.001	0.003	0.002	0.001	0.001	0.001	0.001	0.000	0.004	0.001	0.002	0.000
795.00	-0.000	0.001	0.001	0.001	0.001	0.003	0.002	0.001	0.001	0.001	0.001	0.000	0.004	0.001	0.002	0.001
796.00	-0.000	0.001	0.001	0.001	0.001	0.004	0.002	0.001	0.001	0.001	0.001	0.000	0.004	0.001	0.002	0.001
797.00	-0.000	0.001	0.001	0.000	0.001	0.004	0.002	0.001	0.001	0.001	0.001	0.000	0.004	0.001	0.002	0.001
798.00	-0.000	0.001	0.001	0.000	0.001	0.003	0.002	0.001	0.001	0.001	0.001	0.000	0.004	0.001	0.002	0.001
799.00	-0.000	0.001	0.001	0.001	0.001	0.003	0.002	0.001	0.001	0.001	0.001	0.000	0.004	0.001	0.002	0.001
800.00	-0.000	0.001	0.001	0.000	0.001	0.003	0.002	0.001	0.001	0.001	0.001	0.000	0.004	0.001	0.002	0.001
801.00	-0.000	0.001	0.001	0.001	0.001	0.003	0.002	0.001	0.001	0.001	0.001	0.000	0.004	0.001	0.002	0.001
802.00	-0.000	0.001	0.001	0.001	0.001	0.003	0.002	0.001	0.001	0.001	0.001	0.000	0.004	0.001	0.002	0.001
803.00	-0.000	0.001	0.001	0.001	0.001	0.003	0.002	0.001	0.001	0.001	0.001	0.000	0.004	0.001	0.002	0.001
804.00	-0.000	0.001	0.001	0.000	0.001	0.003	0.002	0.001	0.001	0.001	0.001	0.000	0.004	0.001	0.002	0.001
805.00	-0.000	0.001	0.001	0.000	0.001	0.003	0.002	0.001	0.001	0.001	0.001	0.000	0.004	0.001	0.002	0.001
806.00	-0.000	0.001	0.001	0.000	0.001	0.003	0.002	0.001	0.001	0.001	0.001	0.000	0.004	0.001	0.002	0.001
807.00	-0.000	0.001	0.001	0.000	0.001	0.003	0.002	0.001	0.001	0.001	0.001	0.000	0.004	0.001	0.002	0.001
808.00	-0.000	0.001	0.001	0.000	0.001	0.003	0.002	0.001	0.001	0.001	0.001	0.000	0.004	0.001	0.002	0.001
809.00	-0.000	0.001	0.001	0.001	0.001	0.003	0.002	0.001	0.001	0.001	0.001	0.000	0.004	0.001	0.002	0.001
810.00	-0.000	0.001	0.001	0.000	0.001	0.003	0.002	0.001	0.001	0.001	0.001	0.000	0.004	0.001	0.002	0.001
811.00	-0.000	0.001	0.001	0.000	0.001	0.003	0.002	0.001	0.001	0.001	0.001	0.000	0.004	0.001	0.002	0.001
812.00	-0.000	0.001	0.001	0.000	0.001	0.003	0.002	0.001	0.001	0.001	0.001	0.000	0.004	0.001	0.002	0.001
813.00	-0.000	0.001	0.001	0.000	0.001	0.003	0.002	0.001	0.001	0.001	0.001	0.000	0.004	0.001	0.002	0.001
814.00	-0.000	0.001	0.001	0.000	0.001	0.003	0.002	0.001	0.001	0.001	0.001	0.000	0.004	0.001	0.002	0.001
815.00	-0.000	0.001	0.001	0.000	0.001	0.003	0.002	0.001	0.001	0.001	0.001	0.000	0.004	0.001	0.002	0.001
816.00	-0.000	0.001	0.001	0.001	0.001	0.003	0.002	0.001	0.001	0.001	0.001	0.000	0.004	0.001	0.002	0.001
817.00	-0.000	0.001	0.001	0.001	0.001	0.003	0.002	0.001	0.001	0.001	0.001	0.000	0.004	0.001	0.002	0.001
818.00	-0.000	0.001	0.001	0.001	0.001	0.003	0.002	0.001	0.001	0.001	0.001	0.000	0.004	0.001	0.002	0.001
819.00	-0.000	0.001	0.001	0.000	0.001	0.003	0.002	0.001	0.001	0.001	0.001	0.000	0.004	0.001	0.002	0.001
820.00	-0.000	0.001	0.001	0.001	0.001	0.003	0.002	0.001	0.001	0.001	0.001	0.000	0.004	0.001	0.002	0.001
821.00	-0.000	0.001	0.001	0.000	0.001	0.003	0.002	0.001	0.001	0.001	0.001	0.000	0.004	0.001	0.002	0.001
822.00	-0.000	0.001	0.001	0.000	0.001	0.003	0.002	0.001	0.001	0.001	0.001	0.000	0.004	0.001	0.002	0.001
823.00	-0.000	0.001	0.001	0.000	0.001	0.003	0.002	0.001	0.001	0.001	0.001	0.000	0.004	0.001	0.002	0.001
824.00	-0.000	0.001	0.001	0.000	0.001	0.003	0.002	0.001	0.001	0.001	0.001	0.000	0.004	0.001	0.002	0.001
825.00	-0.000	0.001	0.001	0.000	0.001	0.003	0.002	0.001	0.001	0.001	0.001	0.000	0.004	0.001	0.002	0.001
826.00	-0.000	0.001	0.001	0.001	0.001	0.003	0.002	0.001	0.001	0.001	0.001	0.000	0.004	0.001	0.002	0.001
827.00	-0.000	0.001	0.001	0.001	0.001	0.003	0.002	0.001	0.001	0.001	0.001	0.000	0.004	0.001	0.002	0.001
828.00	-0.000	0.001	0.001	0.000	0.001	0.003	0.002	0.001	0.001	0.001	0.001	0.000	0.004	0.001	0.002	0.000
829.00	-0.000	0.001	0.001	0.000	0.001	0.003	0.002	0.001	0.001	0.001	0.001	0.000	0.004	0.001	0.002	0.000
830.00	-0.000	0.001	0.001	0.000	0.001	0.003	0.002	0.001	0.001	0.001	0.001	0.000	0.004	0.001	0.002	0.000
831.00	-0.000	0.001	0.001	0.000	0.001	0.003	0.002	0.001	0.001	0.001	0.001	0.000	0.004	0.001	0.002	0.000
832.00	-0.000	0.001	0.001	0.000	0.001	0.003	0.002	0.001	0.001	0.001	0.001	0.000	0.004	0.001	0.002	0.000
833.00	-0.000	0.001	0.001	0.000	0.001	0.003	0.002	0.001	0.001	0.001	0.001	0.000	0.004	0.001	0.002	0.000
834.00	-0.000	0.001	0.001	0.000	0.001	0.003	0.002	0.001	0.001	0.001	0.001	0.000	0.004	0.001	0.002	0.000
835.00	-0.000	0.001	0.001	0.000	0.001	0.003	0.002	0.001	0.001	0.001	0.001	0.000	0.004	0.001	0.002	0.000
836.00	-0.000	0.001	0.001	0.000	0.001	0.003	0.002	0.001	0.001	0.001	0.001	0.000	0.004	0.001	0.002	0.000
837.00	-0.000	0.001	0.001	0.000	0.001	0.003	0.002	0.001	0.001	0.001	0.001	0.000	0.004	0.001	0.002	0.001
838.00	-0.000	0.001	0.001	0.000	0.001	0.003	0.002	0.001	0.001	0.001	0.001	0.000	0.004	0.001	0.002	0.001
839.00	-0.000	0.001	0.001	0.000	0.001	0.003	0.002	0.001	0.001	0.001	0.001	0.000	0.004	0.001	0.002	0.001
840.00	-0.000	0.001	0.001	0.000	0.001	0.003	0.002	0.001	0.001	0.001	0.001	0.000	0.004	0.001	0.002	0.000
841.00	-0.000	0.001	0.001	0.000	0.001	0.003	0.002	0.001	0.001	0.001	0.001	0.000	0.004	0.001	0.002	0.000
842.00	-0.000	0.001	0.001	0.000	0.001	0.003	0.002	0.001	0.001	0.001	0.001	0.000	0.004	0.001	0.002	0.000
843.00	-0.000	0.001	0.001	0.000	0.001	0.003	0.002	0.001	0.001	0.001	0.001	0.000	0.004	0.001	0.002	0.000
844.00	-0.000	0.001	0.001	0.000	0.001	0.003	0.002	0.001	0.001	0.001	0.001	0.000	0.004	0.001	0.002	0.000
845.00	-0.000	0.001	0.001	0.000	0.001	0.003	0.002	0.001	0.001	0.001	0.001	0.000	0.004	0.001	0.002	0.000
846.00	-0.000	0.001	0.001	0.000	0.001	0.003	0.002	0.001	0.001	0.001	0.001	0.000	0.004	0.001	0.002	0.000
847.00	-0.000	0.001	0.001	0.000	0.001	0.003	0.002	0.001	0.001	0.001	0.001	0.000	0.004	0.001	0.002	0.000
848.00	-0.000	0.001	0.001	0.000	0.001	0.003	0.002	0.001	0.001	0.001	0.001	0.000	0.004	0.001	0.002	0.000
849.00	-0.000	0.001	0.001	0.000	0.001	0.003	0.002	0.001	0.001	0.001	0.001	0.000	0.004	0.001	0.002	0.000
850.00	-0.000	0.001	0.001	0.000	0.001	0.003	0.002	0.001	0.001	0.001	0.001	0.000	0.004	0.001	0.002	0.000
