Wavelength nm.	RawData ...	RawData ...	RawData ...	RawData ...	RawData ...	RawData ...	RawData ...	RawData ...	RawData ...	RawData ...	RawData ...	RawData ...	RawData ...
190.00	0.004	0.423	0.350	0.395	0.493	0.390	0.406	0.468	0.442	0.408	0.456	0.405	0.446
191.00	0.004	0.386	0.334	0.364	0.464	0.359	0.372	0.435	0.409	0.380	0.422	0.369	0.417
192.00	0.002	0.351	0.321	0.332	0.434	0.330	0.339	0.401	0.378	0.352	0.390	0.341	0.390
193.00	0.003	0.315	0.306	0.299	0.402	0.296	0.305	0.368	0.345	0.323	0.360	0.310	0.361
194.00	0.003	0.285	0.293	0.273	0.377	0.268	0.278	0.340	0.318	0.301	0.335	0.284	0.335
195.00	0.004	0.258	0.281	0.248	0.352	0.243	0.252	0.314	0.294	0.278	0.311	0.261	0.312
196.00	0.004	0.235	0.270	0.227	0.330	0.222	0.232	0.291	0.274	0.258	0.291	0.240	0.293
197.00	0.004	0.215	0.260	0.210	0.311	0.203	0.213	0.272	0.256	0.241	0.274	0.223	0.277
198.00	0.004	0.196	0.251	0.193	0.293	0.187	0.196	0.254	0.241	0.225	0.258	0.206	0.262
199.00	0.004	0.181	0.243	0.179	0.276	0.173	0.181	0.240	0.228	0.209	0.244	0.192	0.250
200.00	0.004	0.168	0.236	0.168	0.262	0.161	0.169	0.228	0.217	0.195	0.231	0.181	0.239
201.00	0.003	0.156	0.228	0.157	0.249	0.150	0.157	0.216	0.206	0.183	0.219	0.170	0.229
202.00	0.004	0.145	0.222	0.147	0.238	0.140	0.148	0.207	0.197	0.172	0.208	0.160	0.220
203.00	0.004	0.137	0.216	0.139	0.230	0.133	0.140	0.199	0.190	0.163	0.200	0.152	0.213
204.00	0.004	0.129	0.211	0.132	0.221	0.126	0.132	0.191	0.183	0.155	0.191	0.145	0.206
205.00	0.003	0.123	0.205	0.126	0.214	0.120	0.126	0.184	0.176	0.148	0.184	0.139	0.200
206.00	0.003	0.117	0.200	0.120	0.208	0.114	0.120	0.179	0.171	0.142	0.177	0.133	0.193
207.00	0.003	0.112	0.195	0.116	0.202	0.110	0.115	0.174	0.165	0.137	0.171	0.128	0.188
208.00	0.003	0.108	0.191	0.112	0.197	0.106	0.111	0.169	0.160	0.133	0.165	0.123	0.182
209.00	0.003	0.103	0.185	0.107	0.192	0.102	0.107	0.164	0.155	0.128	0.159	0.119	0.176
210.00	0.003	0.100	0.180	0.104	0.187	0.098	0.103	0.161	0.150	0.123	0.154	0.115	0.170
211.00	0.003	0.096	0.175	0.100	0.183	0.095	0.100	0.157	0.145	0.120	0.148	0.111	0.164
212.00	0.003	0.093	0.169	0.097	0.179	0.092	0.096	0.153	0.139	0.115	0.142	0.107	0.158
213.00	0.003	0.090	0.163	0.094	0.174	0.089	0.093	0.149	0.134	0.111	0.136	0.104	0.151
214.00	0.003	0.087	0.158	0.091	0.170	0.086	0.090	0.146	0.128	0.108	0.130	0.100	0.145
215.00	0.003	0.085	0.152	0.088	0.166	0.084	0.087	0.142	0.123	0.104	0.125	0.097	0.138
216.00	0.003	0.082	0.146	0.085	0.162	0.081	0.084	0.139	0.118	0.101	0.120	0.093	0.132
217.00	0.002	0.079	0.140	0.082	0.159	0.079	0.082	0.136	0.113	0.098	0.114	0.090	0.126
218.00	0.003	0.077	0.135	0.080	0.156	0.077	0.080	0.134	0.108	0.095	0.110	0.087	0.120
219.00	0.003	0.076	0.131	0.077	0.153	0.075	0.078	0.132	0.104	0.093	0.105	0.085	0.114
220.00	0.003	0.074	0.126	0.075	0.150	0.074	0.076	0.129	0.099	0.090	0.101	0.082	0.109
221.00	0.003	0.072	0.121	0.074	0.148	0.072	0.074	0.127	0.095	0.087	0.097	0.080	0.104
222.00	0.003	0.071	0.117	0.072	0.145	0.070	0.072	0.125	0.091	0.085	0.093	0.078	0.099
223.00	0.003	0.069	0.113	0.070	0.143	0.069	0.070	0.123	0.088	0.083	0.089	0.076	0.095
224.00	0.003	0.067	0.109	0.068	0.140	0.067	0.069	0.120	0.084	0.080	0.086	0.074	0.091
225.00	0.003	0.066	0.105	0.066	0.138	0.066	0.067	0.118	0.081	0.078	0.082	0.072	0.087
226.00	0.003	0.064	0.102	0.065	0.135	0.064	0.066	0.117	0.078	0.076	0.079	0.070	0.083
227.00	0.003	0.063	0.098	0.063	0.133	0.063	0.064	0.115	0.075	0.074	0.076	0.068	0.080
228.00	0.003	0.062	0.095	0.061	0.130	0.062	0.062	0.113	0.072	0.072	0.074	0.066	0.076
229.00	0.002	0.060	0.092	0.060	0.128	0.060	0.061	0.111	0.070	0.070	0.071	0.065	0.074
230.00	0.002	0.059	0.089	0.059	0.126	0.059	0.059	0.109	0.068	0.068	0.068	0.063	0.071
231.00	0.002	0.058	0.087	0.057	0.123	0.058	0.058	0.107	0.066	0.066	0.066	0.061	0.068
232.00	0.002	0.056	0.085	0.056	0.121	0.057	0.057	0.105	0.064	0.064	0.064	0.060	0.066
233.00	0.002	0.055	0.083	0.055	0.119	0.056	0.056	0.104	0.062	0.062	0.062	0.059	0.064
234.00	0.002	0.054	0.080	0.054	0.117	0.054	0.055	0.102	0.061	0.060	0.060	0.058	0.063
235.00	0.002	0.053	0.079	0.053	0.115	0.053	0.053	0.101	0.059	0.059	0.059	0.056	0.061
236.00	0.002	0.053	0.077	0.052	0.113	0.052	0.052	0.099	0.058	0.057	0.057	0.055	0.060
237.00	0.002	0.052	0.075	0.051	0.111	0.051	0.052	0.098	0.057	0.056	0.056	0.054	0.058
238.00	0.002	0.051	0.074	0.050	0.110	0.051	0.051	0.096	0.056	0.055	0.055	0.053	0.057
239.00	0.002	0.050	0.072	0.049	0.108	0.050	0.050	0.095	0.055	0.054	0.053	0.053	0.056
240.00	0.002	0.049	0.071	0.049	0.107	0.049	0.049	0.094	0.054	0.053	0.053	0.052	0.055
241.00	0.002	0.048	0.070	0.048	0.105	0.048	0.048	0.093	0.053	0.052	0.052	0.051	0.054
242.00	0.002	0.048	0.069	0.047	0.104	0.048	0.048	0.091	0.052	0.052	0.051	0.050	0.053
243.00	0.002	0.048	0.068	0.047	0.103	0.047	0.047	0.091	0.052	0.051	0.050	0.050	0.053
244.00	0.002	0.047	0.067	0.046	0.102	0.047	0.047	0.090	0.051	0.050	0.049	0.049	0.052
245.00	0.002	0.047	0.066	0.046	0.101	0.046	0.046	0.089	0.050	0.050	0.049	0.048	0.051
246.00	0.002	0.046	0.066	0.045	0.100	0.046	0.046	0.088	0.050	0.049	0.048	0.048	0.051
247.00	0.002	0.046	0.065	0.045	0.100	0.045	0.045	0.087	0.049	0.048	0.048	0.047	0.050
248.00	0.002	0.045	0.064	0.044	0.099	0.045	0.045	0.086	0.048	0.048	0.047	0.047	0.050
249.00	0.002	0.045	0.063	0.044	0.098	0.044	0.044	0.086	0.048	0.047	0.046	0.047	0.049
250.00	0.002	0.044	0.062	0.043	0.097	0.044	0.044	0.085	0.048	0.047	0.046	0.046	0.049
251.00	0.002	0.044	0.062	0.043	0.097	0.044	0.044	0.085	0.047	0.047	0.045	0.046	0.048
252.00	0.002	0.044	0.061	0.043	0.096	0.043	0.043	0.084	0.047	0.046	0.045	0.045	0.048
253.00	0.002	0.043	0.061	0.042	0.095	0.043	0.043	0.083	0.046	0.046	0.045	0.045	0.048
254.00	0.002	0.043	0.060	0.042	0.095	0.043	0.042	0.083	0.046	0.045	0.044	0.044	0.047
255.00	0.002	0.043	0.060	0.042	0.094	0.042	0.042	0.082	0.045	0.045	0.044	0.044	0.047
256.00	0.002	0.042	0.059	0.041	0.093	0.042	0.042	0.082	0.045	0.045	0.044	0.044	0.046
257.00	0.002	0.042	0.059	0.041	0.093	0.042	0.042	0.081	0.045	0.044	0.043	0.043	0.046
258.00	0.002	0.042	0.058	0.041	0.092	0.041	0.041	0.081	0.044	0.044	0.043	0.043	0.046
259.00	0.002	0.041	0.058	0.040	0.092	0.041	0.041	0.080	0.044	0.043	0.042	0.042	0.045
260.00	0.002	0.041	0.057	0.040	0.091	0.040	0.041	0.080	0.043	0.043	0.042	0.042	0.045
261.00	0.002	0.041	0.057	0.040	0.091	0.040	0.040	0.079	0.043	0.043	0.042	0.042	0.045
262.00	0.002	0.040	0.056	0.039	0.090	0.040	0.040	0.078	0.043	0.042	0.041	0.042	0.044
263.00	0.002	0.040	0.056	0.039	0.089	0.039	0.039	0.078	0.042	0.042	0.041	0.041	0.044
264.00	0.002	0.039	0.055	0.038	0.088	0.039	0.039	0.077	0.042	0.041	0.040	0.040	0.043
265.00	0.002	0.039	0.055	0.038	0.088	0.038	0.039	0.076	0.041	0.041	0.040	0.040	0.043
266.00	0.002	0.039	0.055	0.037	0.087	0.038	0.038	0.076	0.041	0.041	0.040	0.039	0.043
267.00	0.002	0.038	0.054	0.037	0.086	0.038	0.038	0.075	0.040	0.040	0.039	0.039	0.042
268.00	0.002	0.038	0.054	0.037	0.085	0.037	0.037	0.074	0.040	0.039	0.038	0.038	0.041
269.00	0.001	0.037	0.053	0.036	0.084	0.036	0.036	0.073	0.039	0.039	0.038	0.038	0.041
270.00	0.002	0.036	0.053	0.035	0.083	0.036	0.036	0.072	0.039	0.038	0.037	0.037	0.040
271.00	0.001	0.036	0.052	0.035	0.082	0.035	0.035	0.071	0.038	0.037	0.037	0.036	0.040
272.00	0.001	0.035	0.052	0.034	0.081	0.035	0.035	0.070	0.038	0.037	0.036	0.036	0.039
273.00	0.002	0.035	0.051	0.033	0.080	0.034	0.034	0.070	0.037	0.036	0.035	0.035	0.039
274.00	0.002	0.034	0.051	0.033	0.079	0.033	0.033	0.068	0.036	0.036	0.035	0.035	0.038
275.00	0.002	0.033	0.050	0.032	0.078	0.033	0.033	0.068	0.036	0.035	0.034	0.034	0.037
276.00	0.001	0.032	0.049	0.031	0.077	0.032	0.032	0.066	0.035	0.034	0.033	0.033	0.037
277.00	0.001	0.032	0.049	0.031	0.076	0.031	0.031	0.065	0.035	0.033	0.032	0.033	0.036
278.00	0.001	0.031	0.048	0.030	0.075	0.030	0.030	0.064	0.034	0.033	0.032	0.032	0.035
279.00	0.001	0.030	0.048	0.029	0.074	0.030	0.030	0.063	0.033	0.032	0.031	0.031	0.034
280.00	0.001	0.029	0.047	0.029	0.073	0.029	0.029	0.062	0.033	0.031	0.030	0.031	0.034
281.00	0.001	0.029	0.046	0.028	0.072	0.028	0.028	0.061	0.032	0.031	0.030	0.030	0.034
282.00	0.001	0.028	0.046	0.027	0.071	0.028	0.028	0.060	0.031	0.030	0.029	0.029	0.033
283.00	0.001	0.027	0.045	0.026	0.070	0.027	0.027	0.059	0.031	0.029	0.028	0.028	0.032
284.00	0.001	0.027	0.045	0.026	0.068	0.026	0.026	0.058	0.030	0.028	0.028	0.028	0.032
285.00	0.001	0.026	0.044	0.025	0.067	0.026	0.026	0.057	0.030	0.028	0.027	0.027	0.031
286.00	0.002	0.025	0.044	0.025	0.066	0.025	0.025	0.056	0.029	0.027	0.026	0.026	0.030
287.00	0.001	0.025	0.043	0.024	0.065	0.025	0.024	0.055	0.029	0.026	0.026	0.026	0.030
288.00	0.001	0.024	0.042	0.023	0.064	0.024	0.024	0.054	0.028	0.026	0.025	0.025	0.029
289.00	0.001	0.024	0.042	0.023	0.063	0.023	0.023	0.053	0.027	0.025	0.024	0.024	0.029
290.00	0.001	0.023	0.041	0.022	0.062	0.022	0.022	0.052	0.027	0.025	0.024	0.024	0.028
291.00	0.001	0.022	0.041	0.021	0.061	0.022	0.022	0.051	0.026	0.024	0.023	0.023	0.028
292.00	0.001	0.022	0.040	0.021	0.060	0.021	0.021	0.050	0.026	0.023	0.022	0.023	0.027
293.00	0.001	0.021	0.039	0.020	0.059	0.021	0.021	0.049	0.025	0.023	0.022	0.022	0.026
294.00	0.001	0.020	0.039	0.020	0.058	0.020	0.020	0.048	0.025	0.022	0.021	0.022	0.026
295.00	0.001	0.020	0.038	0.019	0.057	0.020	0.019	0.047	0.024	0.022	0.021	0.021	0.025
296.00	0.001	0.019	0.038	0.019	0.056	0.019	0.019	0.046	0.024	0.021	0.020	0.021	0.025
297.00	0.001	0.019	0.038	0.018	0.056	0.019	0.019	0.046	0.023	0.021	0.020	0.020	0.025
298.00	0.001	0.018	0.037	0.018	0.055	0.018	0.018	0.045	0.023	0.020	0.019	0.020	0.024
299.00	0.001	0.018	0.036	0.017	0.054	0.018	0.018	0.044	0.022	0.020	0.019	0.019	0.023
300.00	0.001	0.018	0.036	0.017	0.053	0.017	0.017	0.043	0.022	0.019	0.018	0.019	0.023
301.00	0.001	0.017	0.035	0.017	0.052	0.017	0.017	0.042	0.022	0.019	0.018	0.018	0.023
302.00	0.001	0.017	0.035	0.016	0.052	0.017	0.016	0.041	0.021	0.018	0.018	0.018	0.022
303.00	0.001	0.016	0.034	0.016	0.050	0.016	0.016	0.041	0.021	0.018	0.017	0.017	0.022
304.00	0.001	0.016	0.034	0.015	0.050	0.016	0.015	0.040	0.020	0.018	0.017	0.017	0.021
305.00	0.001	0.016	0.034	0.015	0.049	0.015	0.015	0.039	0.020	0.017	0.017	0.017	0.021
306.00	0.001	0.015	0.033	0.015	0.048	0.015	0.015	0.038	0.019	0.017	0.016	0.016	0.021
307.00	0.001	0.015	0.032	0.014	0.047	0.015	0.014	0.037	0.019	0.016	0.016	0.016	0.020
308.00	0.001	0.014	0.032	0.014	0.047	0.014	0.014	0.037	0.019	0.016	0.016	0.015	0.020
309.00	0.001	0.014	0.031	0.014	0.046	0.014	0.014	0.036	0.018	0.015	0.015	0.015	0.020
310.00	0.001	0.014	0.031	0.013	0.045	0.014	0.013	0.036	0.018	0.015	0.015	0.015	0.019
311.00	0.001	0.014	0.031	0.013	0.045	0.014	0.013	0.035	0.018	0.015	0.015	0.014	0.019
312.00	0.001	0.013	0.030	0.013	0.044	0.013	0.013	0.034	0.018	0.015	0.014	0.014	0.019
313.00	0.001	0.013	0.030	0.012	0.043	0.013	0.012	0.034	0.017	0.014	0.014	0.014	0.018
314.00	0.001	0.013	0.029	0.012	0.043	0.013	0.012	0.033	0.017	0.014	0.014	0.014	0.018
315.00	0.001	0.012	0.029	0.012	0.043	0.012	0.012	0.033	0.016	0.014	0.014	0.013	0.018
316.00	0.001	0.012	0.029	0.012	0.042	0.012	0.012	0.032	0.016	0.014	0.013	0.013	0.017
317.00	0.001	0.012	0.028	0.012	0.042	0.012	0.011	0.032	0.016	0.013	0.013	0.013	0.017
318.00	0.001	0.012	0.028	0.011	0.041	0.012	0.011	0.031	0.016	0.013	0.013	0.013	0.017
319.00	0.001	0.012	0.027	0.011	0.040	0.011	0.011	0.031	0.015	0.013	0.013	0.012	0.016
320.00	0.001	0.011	0.027	0.011	0.040	0.011	0.011	0.030	0.015	0.013	0.012	0.012	0.016
321.00	0.001	0.011	0.027	0.011	0.040	0.011	0.011	0.030	0.015	0.013	0.012	0.012	0.016
322.00	0.001	0.011	0.026	0.010	0.039	0.011	0.010	0.030	0.014	0.012	0.012	0.012	0.016
323.00	0.001	0.011	0.026	0.010	0.039	0.010	0.010	0.029	0.014	0.012	0.012	0.012	0.016
324.00	0.001	0.011	0.026	0.010	0.038	0.011	0.010	0.029	0.014	0.012	0.012	0.012	0.015
325.00	0.001	0.011	0.026	0.010	0.038	0.010	0.010	0.029	0.014	0.012	0.012	0.011	0.015
326.00	0.001	0.010	0.025	0.010	0.038	0.010	0.010	0.028	0.014	0.011	0.012	0.011	0.015
327.00	0.001	0.010	0.025	0.010	0.037	0.010	0.010	0.028	0.013	0.011	0.011	0.011	0.015
328.00	0.001	0.010	0.024	0.010	0.037	0.010	0.009	0.027	0.013	0.011	0.011	0.011	0.014
329.00	0.001	0.010	0.024	0.009	0.037	0.010	0.009	0.027	0.013	0.011	0.011	0.011	0.014
330.00	0.001	0.010	0.024	0.009	0.036	0.009	0.009	0.027	0.013	0.011	0.011	0.011	0.014
331.00	0.001	0.010	0.024	0.009	0.036	0.009	0.009	0.026	0.013	0.011	0.011	0.010	0.014
332.00	0.001	0.009	0.023	0.009	0.036	0.009	0.009	0.026	0.013	0.010	0.010	0.010	0.014
333.00	0.001	0.009	0.023	0.009	0.035	0.009	0.009	0.025	0.013	0.010	0.010	0.010	0.014
334.00	0.001	0.009	0.023	0.009	0.035	0.009	0.008	0.025	0.012	0.010	0.010	0.010	0.013
335.00	0.001	0.009	0.022	0.009	0.034	0.009	0.009	0.025	0.012	0.010	0.010	0.010	0.013
336.00	0.001	0.009	0.022	0.009	0.034	0.008	0.008	0.025	0.012	0.010	0.010	0.009	0.013
337.00	0.001	0.009	0.022	0.009	0.034	0.009	0.008	0.024	0.012	0.010	0.010	0.009	0.013
338.00	0.001	0.009	0.022	0.008	0.033	0.009	0.008	0.024	0.012	0.010	0.010	0.009	0.013
339.00	0.001	0.009	0.021	0.008	0.033	0.009	0.008	0.024	0.012	0.010	0.010	0.009	0.013
340.00	0.003	0.010	0.023	0.010	0.034	0.010	0.009	0.025	0.013	0.011	0.011	0.011	0.014
341.00	0.001	0.009	0.021	0.008	0.032	0.008	0.008	0.023	0.012	0.010	0.009	0.009	0.012
342.00	0.001	0.008	0.021	0.008	0.032	0.008	0.008	0.023	0.011	0.009	0.009	0.009	0.012
343.00	0.001	0.008	0.020	0.008	0.031	0.008	0.008	0.023	0.011	0.009	0.009	0.009	0.012
344.00	0.001	0.008	0.020	0.008	0.031	0.008	0.007	0.022	0.011	0.009	0.009	0.009	0.012
345.00	0.001	0.008	0.020	0.007	0.030	0.008	0.007	0.022	0.011	0.009	0.009	0.009	0.011
346.00	0.001	0.008	0.019	0.007	0.030	0.007	0.007	0.021	0.010	0.009	0.009	0.009	0.011
347.00	0.000	0.007	0.019	0.007	0.030	0.007	0.006	0.021	0.010	0.009	0.008	0.008	0.011
348.00	0.000	0.007	0.019	0.007	0.029	0.007	0.007	0.021	0.010	0.008	0.008	0.008	0.011
349.00	0.001	0.007	0.019	0.007	0.029	0.007	0.007	0.021	0.010	0.008	0.008	0.008	0.011
350.00	0.001	0.007	0.018	0.007	0.029	0.007	0.006	0.020	0.010	0.008	0.009	0.008	0.011
351.00	0.001	0.007	0.018	0.007	0.028	0.007	0.006	0.020	0.010	0.008	0.008	0.008	0.011
352.00	0.001	0.007	0.018	0.007	0.028	0.007	0.006	0.020	0.010	0.008	0.008	0.007	0.010
353.00	0.001	0.007	0.018	0.006	0.028	0.007	0.006	0.020	0.009	0.008	0.008	0.007	0.010
354.00	0.001	0.007	0.017	0.006	0.027	0.007	0.006	0.019	0.009	0.008	0.008	0.007	0.010
355.00	0.001	0.007	0.017	0.006	0.027	0.007	0.006	0.019	0.009	0.008	0.008	0.007	0.010
356.00	0.001	0.007	0.017	0.006	0.027	0.006	0.006	0.019	0.009	0.008	0.008	0.007	0.010
357.00	0.001	0.006	0.017	0.006	0.027	0.007	0.006	0.019	0.009	0.008	0.008	0.007	0.010
358.00	0.001	0.006	0.016	0.006	0.026	0.006	0.006	0.018	0.008	0.008	0.008	0.007	0.009
359.00	0.001	0.006	0.016	0.006	0.026	0.006	0.006	0.018	0.008	0.008	0.007	0.007	0.009
360.00	0.000	0.006	0.016	0.006	0.026	0.006	0.005	0.017	0.008	0.007	0.007	0.007	0.009
361.00	0.001	0.006	0.016	0.006	0.025	0.006	0.005	0.017	0.008	0.007	0.007	0.007	0.009
362.00	0.000	0.006	0.016	0.006	0.025	0.006	0.005	0.017	0.008	0.007	0.007	0.007	0.009
363.00	0.001	0.006	0.016	0.006	0.025	0.006	0.005	0.017	0.008	0.007	0.007	0.007	0.009
364.00	0.001	0.006	0.015	0.005	0.025	0.006	0.005	0.016	0.008	0.007	0.007	0.006	0.008
365.00	0.001	0.006	0.015	0.005	0.025	0.006	0.005	0.016	0.008	0.007	0.007	0.006	0.008
366.00	0.001	0.006	0.015	0.005	0.024	0.005	0.005	0.016	0.008	0.007	0.007	0.006	0.008
367.00	0.000	0.005	0.014	0.005	0.024	0.005	0.005	0.016	0.007	0.006	0.007	0.006	0.008
368.00	0.000	0.005	0.014	0.005	0.024	0.005	0.005	0.016	0.007	0.007	0.006	0.006	0.008
369.00	0.000	0.005	0.014	0.005	0.023	0.005	0.004	0.015	0.007	0.006	0.006	0.006	0.008
370.00	0.000	0.005	0.014	0.005	0.023	0.005	0.005	0.015	0.007	0.007	0.006	0.006	0.008
371.00	0.001	0.005	0.014	0.005	0.023	0.005	0.004	0.015	0.007	0.007	0.006	0.006	0.008
372.00	0.001	0.005	0.014	0.005	0.023	0.005	0.004	0.015	0.007	0.007	0.006	0.006	0.008
373.00	0.001	0.005	0.013	0.005	0.023	0.005	0.004	0.014	0.007	0.006	0.006	0.006	0.008
374.00	0.000	0.005	0.013	0.004	0.022	0.005	0.004	0.014	0.007	0.006	0.006	0.005	0.007
375.00	0.001	0.005	0.013	0.004	0.022	0.005	0.004	0.014	0.007	0.006	0.006	0.005	0.007
376.00	0.001	0.005	0.013	0.004	0.022	0.005	0.004	0.014	0.007	0.006	0.006	0.005	0.007
377.00	0.001	0.005	0.013	0.004	0.022	0.005	0.004	0.014	0.006	0.006	0.006	0.005	0.007
378.00	0.001	0.005	0.013	0.004	0.022	0.005	0.004	0.014	0.006	0.006	0.006	0.005	0.007
379.00	0.001	0.005	0.013	0.004	0.021	0.005	0.004	0.014	0.006	0.006	0.006	0.005	0.007
380.00	0.001	0.005	0.012	0.004	0.021	0.004	0.004	0.013	0.006	0.006	0.006	0.005	0.007
381.00	0.001	0.004	0.012	0.004	0.021	0.004	0.004	0.013	0.006	0.006	0.006	0.005	0.007
382.00	0.001	0.005	0.012	0.004	0.021	0.004	0.004	0.013	0.006	0.006	0.006	0.005	0.007
383.00	0.001	0.005	0.012	0.004	0.020	0.004	0.004	0.013	0.006	0.006	0.006	0.005	0.007
384.00	0.001	0.004	0.012	0.004	0.020	0.004	0.004	0.013	0.006	0.006	0.006	0.005	0.007
385.00	0.001	0.004	0.012	0.004	0.020	0.004	0.004	0.012	0.006	0.006	0.006	0.005	0.007
386.00	0.001	0.004	0.012	0.004	0.020	0.004	0.004	0.012	0.006	0.006	0.006	0.005	0.006
387.00	0.000	0.004	0.011	0.004	0.020	0.004	0.004	0.012	0.006	0.005	0.005	0.005	0.006
388.00	0.001	0.004	0.011	0.004	0.019	0.004	0.003	0.012	0.006	0.005	0.005	0.005	0.006
389.00	0.001	0.004	0.011	0.004	0.019	0.004	0.003	0.012	0.006	0.005	0.005	0.005	0.006
390.00	0.001	0.004	0.011	0.004	0.019	0.004	0.003	0.011	0.005	0.005	0.005	0.005	0.006
391.00	0.001	0.004	0.011	0.004	0.019	0.004	0.003	0.011	0.005	0.005	0.005	0.004	0.006
392.00	0.001	0.004	0.011	0.004	0.019	0.004	0.003	0.011	0.005	0.005	0.005	0.004	0.006
393.00	0.000	0.004	0.010	0.003	0.018	0.004	0.003	0.011	0.005	0.005	0.005	0.004	0.006
394.00	0.001	0.004	0.010	0.004	0.018	0.004	0.003	0.011	0.005	0.005	0.005	0.004	0.006
395.00	0.000	0.004	0.010	0.004	0.018	0.004	0.003	0.011	0.005	0.005	0.005	0.004	0.006
396.00	0.000	0.004	0.010	0.003	0.018	0.004	0.003	0.011	0.005	0.005	0.005	0.004	0.006
397.00	0.000	0.004	0.010	0.003	0.018	0.004	0.003	0.010	0.005	0.005	0.005	0.004	0.006
398.00	0.000	0.004	0.010	0.003	0.018	0.004	0.003	0.010	0.005	0.005	0.005	0.004	0.006
399.00	0.000	0.004	0.010	0.003	0.017	0.004	0.003	0.010	0.005	0.005	0.005	0.004	0.006
400.00	0.000	0.004	0.010	0.003	0.017	0.004	0.003	0.010	0.005	0.005	0.005	0.004	0.005
401.00	0.000	0.003	0.009	0.003	0.017	0.003	0.003	0.010	0.005	0.005	0.004	0.004	0.005
402.00	0.000	0.004	0.009	0.003	0.017	0.003	0.003	0.010	0.005	0.005	0.005	0.004	0.005
403.00	0.000	0.003	0.009	0.003	0.017	0.003	0.003	0.010	0.004	0.005	0.005	0.004	0.005
404.00	0.000	0.003	0.009	0.003	0.017	0.003	0.003	0.009	0.005	0.005	0.005	0.004	0.005
405.00	0.000	0.003	0.009	0.003	0.016	0.003	0.003	0.009	0.004	0.004	0.004	0.004	0.005
406.00	0.000	0.003	0.009	0.003	0.016	0.003	0.003	0.009	0.004	0.004	0.004	0.004	0.005
407.00	0.000	0.003	0.009	0.003	0.016	0.003	0.003	0.009	0.004	0.004	0.004	0.004	0.005
408.00	0.000	0.003	0.009	0.003	0.016	0.003	0.003	0.009	0.004	0.004	0.004	0.004	0.005
409.00	0.000	0.003	0.009	0.003	0.016	0.003	0.002	0.009	0.004	0.004	0.004	0.003	0.005
410.00	0.000	0.003	0.009	0.003	0.016	0.003	0.002	0.009	0.004	0.004	0.004	0.004	0.005
411.00	0.000	0.003	0.008	0.003	0.016	0.003	0.003	0.009	0.004	0.004	0.004	0.003	0.005
412.00	0.001	0.003	0.008	0.003	0.016	0.003	0.003	0.009	0.004	0.004	0.004	0.004	0.005
413.00	0.000	0.003	0.008	0.003	0.016	0.003	0.002	0.008	0.004	0.004	0.004	0.003	0.005
414.00	0.001	0.003	0.008	0.003	0.015	0.003	0.002	0.008	0.004	0.004	0.004	0.003	0.005
415.00	0.001	0.003	0.008	0.003	0.015	0.003	0.002	0.008	0.004	0.004	0.004	0.003	0.005
416.00	0.001	0.003	0.008	0.003	0.015	0.003	0.002	0.008	0.004	0.004	0.004	0.003	0.005
417.00	0.000	0.003	0.008	0.003	0.015	0.003	0.002	0.008	0.004	0.004	0.004	0.003	0.005
418.00	0.000	0.003	0.008	0.003	0.015	0.003	0.002	0.008	0.004	0.004	0.004	0.003	0.005
419.00	0.000	0.003	0.008	0.002	0.015	0.003	0.002	0.008	0.004	0.004	0.004	0.003	0.004
420.00	0.000	0.003	0.008	0.002	0.015	0.003	0.002	0.008	0.004	0.004	0.004	0.003	0.004
421.00	0.000	0.003	0.008	0.002	0.014	0.003	0.002	0.008	0.004	0.004	0.004	0.003	0.004
422.00	0.000	0.003	0.008	0.002	0.014	0.003	0.002	0.008	0.003	0.004	0.004	0.003	0.004
423.00	0.000	0.003	0.007	0.002	0.014	0.003	0.002	0.007	0.003	0.004	0.004	0.003	0.004
424.00	0.000	0.003	0.007	0.002	0.014	0.003	0.002	0.007	0.003	0.004	0.004	0.003	0.004
425.00	0.000	0.002	0.007	0.002	0.014	0.002	0.002	0.007	0.003	0.004	0.004	0.003	0.004
426.00	0.000	0.003	0.007	0.002	0.014	0.003	0.002	0.007	0.003	0.004	0.004	0.003	0.004
427.00	0.000	0.003	0.007	0.002	0.014	0.003	0.002	0.007	0.003	0.004	0.004	0.003	0.004
428.00	0.000	0.003	0.007	0.002	0.014	0.002	0.002	0.007	0.003	0.003	0.004	0.003	0.004
429.00	0.000	0.002	0.007	0.002	0.014	0.002	0.002	0.007	0.003	0.004	0.003	0.003	0.004
430.00	0.000	0.002	0.007	0.002	0.013	0.002	0.002	0.007	0.003	0.003	0.004	0.003	0.004
431.00	0.000	0.002	0.007	0.002	0.013	0.002	0.002	0.007	0.003	0.003	0.004	0.003	0.004
432.00	0.000	0.003	0.007	0.002	0.013	0.002	0.002	0.007	0.003	0.003	0.004	0.003	0.004
433.00	0.000	0.002	0.007	0.002	0.013	0.002	0.002	0.007	0.003	0.003	0.003	0.003	0.004
434.00	0.000	0.002	0.006	0.002	0.013	0.002	0.002	0.007	0.003	0.003	0.003	0.003	0.004
435.00	0.000	0.002	0.006	0.002	0.013	0.002	0.002	0.006	0.003	0.003	0.003	0.003	0.004
436.00	0.000	0.002	0.006	0.002	0.013	0.002	0.002	0.007	0.003	0.003	0.003	0.003	0.004
437.00	0.000	0.002	0.006	0.002	0.013	0.002	0.002	0.006	0.003	0.003	0.003	0.003	0.004
438.00	0.000	0.002	0.006	0.002	0.013	0.002	0.002	0.006	0.003	0.003	0.003	0.003	0.004
439.00	0.000	0.002	0.006	0.002	0.013	0.002	0.002	0.006	0.003	0.003	0.003	0.002	0.004
440.00	0.000	0.002	0.006	0.002	0.013	0.002	0.002	0.006	0.003	0.003	0.003	0.002	0.004
441.00	0.000	0.002	0.006	0.002	0.013	0.002	0.002	0.006	0.003	0.003	0.003	0.003	0.004
442.00	0.000	0.002	0.006	0.002	0.012	0.002	0.002	0.006	0.003	0.003	0.003	0.003	0.004
443.00	0.000	0.002	0.006	0.002	0.012	0.002	0.002	0.006	0.003	0.003	0.003	0.002	0.004
444.00	0.000	0.002	0.006	0.002	0.012	0.002	0.001	0.006	0.003	0.003	0.003	0.002	0.003
445.00	0.000	0.002	0.006	0.002	0.012	0.002	0.001	0.006	0.003	0.003	0.003	0.002	0.003
446.00	0.000	0.002	0.006	0.002	0.012	0.002	0.002	0.006	0.003	0.003	0.003	0.002	0.003
447.00	0.000	0.002	0.006	0.002	0.012	0.002	0.002	0.006	0.003	0.003	0.003	0.002	0.003
448.00	0.000	0.002	0.006	0.002	0.012	0.002	0.001	0.006	0.003	0.003	0.003	0.002	0.003
449.00	0.000	0.002	0.006	0.002	0.012	0.002	0.001	0.006	0.003	0.003	0.003	0.002	0.003
450.00	0.000	0.002	0.006	0.002	0.012	0.002	0.002	0.006	0.003	0.003	0.003	0.002	0.003
451.00	0.000	0.002	0.006	0.002	0.012	0.002	0.001	0.006	0.003	0.003	0.003	0.002	0.003
452.00	0.000	0.002	0.005	0.002	0.012	0.002	0.001	0.005	0.003	0.003	0.003	0.002	0.003
453.00	0.000	0.002	0.005	0.002	0.012	0.002	0.001	0.005	0.003	0.003	0.003	0.002	0.003
454.00	0.000	0.002	0.005	0.002	0.012	0.002	0.002	0.006	0.003	0.003	0.003	0.002	0.003
455.00	0.000	0.002	0.005	0.002	0.012	0.002	0.001	0.005	0.003	0.003	0.003	0.002	0.003
456.00	0.000	0.002	0.005	0.002	0.012	0.002	0.001	0.005	0.003	0.003	0.003	0.002	0.003
457.00	0.000	0.002	0.005	0.002	0.012	0.002	0.001	0.005	0.003	0.003	0.003	0.002	0.003
458.00	0.000	0.002	0.005	0.002	0.011	0.002	0.001	0.005	0.002	0.003	0.003	0.002	0.003
459.00	0.000	0.002	0.005	0.002	0.011	0.002	0.001	0.005	0.002	0.003	0.003	0.002	0.003
460.00	0.000	0.002	0.005	0.002	0.011	0.002	0.001	0.005	0.003	0.003	0.003	0.002	0.003
461.00	0.000	0.002	0.005	0.002	0.011	0.002	0.001	0.005	0.002	0.003	0.003	0.002	0.003
462.00	0.000	0.002	0.005	0.002	0.011	0.002	0.001	0.005	0.002	0.003	0.003	0.002	0.003
463.00	0.000	0.002	0.005	0.002	0.011	0.002	0.001	0.005	0.002	0.003	0.003	0.002	0.003
464.00	0.000	0.002	0.005	0.002	0.011	0.002	0.001	0.005	0.002	0.003	0.003	0.002	0.003
465.00	0.000	0.002	0.005	0.002	0.011	0.002	0.001	0.005	0.002	0.003	0.003	0.002	0.003
466.00	0.000	0.002	0.005	0.002	0.011	0.002	0.001	0.005	0.002	0.003	0.003	0.002	0.003
467.00	0.000	0.002	0.005	0.002	0.011	0.002	0.001	0.005	0.002	0.003	0.003	0.002	0.003
468.00	0.000	0.002	0.005	0.002	0.011	0.002	0.001	0.005	0.002	0.003	0.003	0.002	0.003
469.00	0.000	0.002	0.005	0.002	0.011	0.002	0.001	0.005	0.002	0.003	0.003	0.002	0.003
470.00	0.000	0.002	0.005	0.002	0.011	0.002	0.001	0.005	0.002	0.003	0.003	0.002	0.003
471.00	0.000	0.002	0.005	0.002	0.011	0.002	0.001	0.005	0.002	0.003	0.003	0.002	0.003
472.00	0.000	0.002	0.005	0.001	0.011	0.002	0.001	0.005	0.002	0.003	0.003	0.002	0.003
473.00	0.000	0.002	0.005	0.002	0.011	0.002	0.001	0.005	0.002	0.003	0.003	0.002	0.003
474.00	0.000	0.002	0.005	0.002	0.011	0.002	0.001	0.005	0.002	0.003	0.003	0.002	0.003
475.00	0.000	0.002	0.005	0.001	0.011	0.002	0.001	0.005	0.002	0.003	0.003	0.002	0.003
476.00	0.000	0.002	0.005	0.001	0.010	0.002	0.001	0.005	0.002	0.003	0.003	0.002	0.003
477.00	0.000	0.002	0.004	0.001	0.010	0.002	0.001	0.005	0.002	0.003	0.003	0.002	0.003
478.00	0.000	0.002	0.004	0.001	0.010	0.002	0.001	0.005	0.002	0.003	0.003	0.002	0.003
479.00	0.000	0.002	0.004	0.001	0.010	0.002	0.001	0.004	0.002	0.003	0.003	0.002	0.003
480.00	0.000	0.002	0.005	0.001	0.010	0.002	0.001	0.004	0.002	0.003	0.003	0.002	0.003
481.00	0.000	0.002	0.004	0.001	0.010	0.002	0.001	0.004	0.002	0.003	0.003	0.002	0.003
482.00	0.000	0.002	0.004	0.001	0.010	0.002	0.001	0.004	0.002	0.003	0.003	0.002	0.003
483.00	0.000	0.002	0.004	0.001	0.010	0.002	0.001	0.004	0.002	0.003	0.003	0.002	0.003
484.00	0.000	0.002	0.004	0.001	0.010	0.002	0.001	0.004	0.002	0.003	0.003	0.002	0.003
485.00	0.000	0.002	0.004	0.001	0.010	0.002	0.001	0.004	0.002	0.003	0.003	0.002	0.003
486.00	0.000	0.002	0.004	0.001	0.010	0.002	0.001	0.004	0.002	0.003	0.003	0.002	0.003
487.00	0.000	0.002	0.004	0.001	0.010	0.002	0.001	0.004	0.002	0.003	0.003	0.002	0.003
488.00	0.000	0.002	0.004	0.001	0.010	0.002	0.001	0.004	0.002	0.002	0.003	0.002	0.003
489.00	0.000	0.002	0.004	0.001	0.010	0.002	0.001	0.004	0.002	0.002	0.003	0.002	0.003
490.00	0.000	0.002	0.004	0.001	0.010	0.002	0.001	0.004	0.002	0.002	0.003	0.002	0.003
491.00	0.000	0.002	0.004	0.001	0.010	0.001	0.001	0.004	0.002	0.002	0.003	0.002	0.002
492.00	0.000	0.002	0.004	0.001	0.010	0.002	0.001	0.004	0.002	0.002	0.003	0.002	0.003
493.00	0.000	0.002	0.004	0.001	0.010	0.001	0.001	0.004	0.002	0.002	0.003	0.002	0.002
494.00	0.000	0.002	0.004	0.001	0.010	0.001	0.001	0.004	0.002	0.002	0.003	0.002	0.002
495.00	0.000	0.002	0.004	0.001	0.010	0.001	0.001	0.004	0.002	0.002	0.003	0.002	0.002
496.00	0.000	0.002	0.004	0.001	0.009	0.002	0.001	0.004	0.002	0.002	0.003	0.002	0.002
497.00	0.000	0.002	0.004	0.001	0.009	0.001	0.001	0.004	0.002	0.002	0.003	0.002	0.002
498.00	0.000	0.002	0.004	0.001	0.009	0.002	0.001	0.004	0.002	0.002	0.003	0.002	0.002
499.00	0.000	0.002	0.004	0.001	0.009	0.001	0.001	0.004	0.002	0.002	0.002	0.002	0.002
500.00	0.000	0.002	0.004	0.001	0.009	0.001	0.001	0.004	0.002	0.002	0.002	0.002	0.002
501.00	0.000	0.002	0.004	0.001	0.009	0.001	0.001	0.004	0.002	0.002	0.003	0.002	0.002
502.00	0.000	0.002	0.004	0.001	0.009	0.001	0.001	0.004	0.002	0.002	0.002	0.002	0.002
503.00	0.000	0.002	0.004	0.001	0.009	0.001	0.001	0.004	0.002	0.002	0.002	0.002	0.002
504.00	0.000	0.002	0.004	0.001	0.009	0.001	0.001	0.004	0.002	0.002	0.002	0.002	0.002
505.00	0.000	0.002	0.004	0.001	0.009	0.002	0.001	0.004	0.002	0.002	0.003	0.002	0.002
506.00	0.000	0.001	0.004	0.001	0.009	0.001	0.001	0.004	0.002	0.002	0.002	0.002	0.002
507.00	0.000	0.002	0.004	0.001	0.009	0.001	0.001	0.004	0.002	0.002	0.003	0.002	0.002
508.00	0.000	0.001	0.004	0.001	0.009	0.001	0.001	0.004	0.002	0.002	0.002	0.002	0.002
509.00	0.000	0.001	0.004	0.001	0.009	0.001	0.001	0.004	0.002	0.002	0.002	0.001	0.002
510.00	0.000	0.001	0.004	0.001	0.009	0.001	0.001	0.004	0.002	0.002	0.002	0.002	0.002
511.00	0.000	0.001	0.004	0.001	0.009	0.001	0.001	0.004	0.002	0.002	0.002	0.001	0.002
512.00	0.000	0.001	0.004	0.001	0.009	0.001	0.001	0.004	0.002	0.002	0.002	0.001	0.002
513.00	0.000	0.001	0.004	0.001	0.009	0.001	0.001	0.003	0.002	0.002	0.002	0.001	0.002
514.00	0.000	0.001	0.004	0.001	0.009	0.001	0.001	0.003	0.002	0.002	0.002	0.001	0.002
515.00	0.000	0.001	0.004	0.001	0.009	0.001	0.001	0.003	0.002	0.002	0.002	0.001	0.002
516.00	0.000	0.001	0.004	0.001	0.009	0.001	0.001	0.003	0.002	0.002	0.002	0.001	0.002
517.00	0.000	0.001	0.004	0.001	0.009	0.001	0.001	0.003	0.001	0.002	0.002	0.001	0.002
518.00	0.000	0.001	0.003	0.001	0.009	0.001	0.001	0.003	0.001	0.002	0.002	0.001	0.002
519.00	0.000	0.001	0.003	0.001	0.009	0.001	0.001	0.003	0.001	0.002	0.002	0.001	0.002
520.00	0.000	0.001	0.003	0.001	0.009	0.001	0.001	0.003	0.002	0.002	0.002	0.001	0.002
521.00	0.000	0.001	0.003	0.001	0.008	0.001	0.001	0.003	0.001	0.002	0.002	0.001	0.002
522.00	0.000	0.001	0.003	0.001	0.008	0.001	0.001	0.003	0.001	0.002	0.002	0.001	0.002
523.00	0.000	0.001	0.003	0.001	0.008	0.001	0.001	0.003	0.001	0.002	0.002	0.001	0.002
524.00	0.000	0.001	0.003	0.001	0.008	0.001	0.001	0.003	0.001	0.002	0.002	0.001	0.002
525.00	0.000	0.001	0.003	0.001	0.008	0.001	0.001	0.003	0.001	0.002	0.002	0.001	0.002
526.00	0.000	0.001	0.003	0.001	0.008	0.001	0.001	0.003	0.001	0.002	0.002	0.001	0.002
527.00	0.000	0.001	0.003	0.001	0.008	0.001	0.001	0.003	0.001	0.002	0.002	0.001	0.002
528.00	0.000	0.001	0.003	0.001	0.008	0.001	0.001	0.003	0.001	0.002	0.002	0.001	0.002
529.00	0.000	0.001	0.003	0.001	0.008	0.001	0.001	0.003	0.001	0.002	0.002	0.001	0.002
530.00	0.000	0.001	0.003	0.001	0.008	0.001	0.001	0.003	0.001	0.002	0.002	0.001	0.002
531.00	-0.000	0.001	0.003	0.001	0.008	0.001	0.001	0.003	0.001	0.002	0.002	0.001	0.002
532.00	-0.000	0.001	0.003	0.001	0.008	0.001	0.001	0.003	0.001	0.002	0.002	0.001	0.002
533.00	-0.000	0.001	0.003	0.001	0.008	0.001	0.000	0.003	0.001	0.002	0.002	0.001	0.002
534.00	-0.000	0.001	0.003	0.001	0.008	0.001	0.001	0.003	0.001	0.002	0.002	0.001	0.002
535.00	0.000	0.001	0.003	0.001	0.008	0.001	0.001	0.003	0.001	0.002	0.002	0.001	0.002
536.00	0.001	0.002	0.004	0.002	0.009	0.002	0.002	0.004	0.002	0.003	0.003	0.002	0.003
537.00	0.000	0.001	0.003	0.001	0.008	0.001	0.001	0.003	0.001	0.002	0.002	0.001	0.002
538.00	-0.000	0.001	0.003	0.001	0.008	0.001	0.000	0.003	0.001	0.002	0.002	0.001	0.002
539.00	-0.000	0.001	0.003	0.001	0.008	0.001	0.001	0.003	0.001	0.002	0.002	0.001	0.002
540.00	0.000	0.001	0.003	0.001	0.008	0.001	0.001	0.003	0.001	0.002	0.002	0.001	0.002
541.00	0.000	0.001	0.003	0.001	0.008	0.001	0.001	0.003	0.001	0.002	0.002	0.001	0.002
542.00	0.000	0.001	0.003	0.001	0.008	0.001	0.001	0.003	0.001	0.002	0.002	0.001	0.002
543.00	0.000	0.001	0.003	0.001	0.008	0.001	0.001	0.003	0.001	0.002	0.002	0.001	0.002
544.00	0.000	0.001	0.003	0.001	0.008	0.001	0.001	0.003	0.001	0.002	0.002	0.001	0.002
545.00	0.000	0.001	0.003	0.001	0.008	0.001	0.001	0.003	0.001	0.002	0.002	0.001	0.002
546.00	0.000	0.001	0.003	0.001	0.008	0.001	0.001	0.003	0.001	0.002	0.002	0.001	0.002
547.00	0.000	0.001	0.003	0.001	0.008	0.001	0.001	0.003	0.001	0.002	0.002	0.001	0.002
548.00	0.000	0.001	0.003	0.001	0.008	0.001	0.001	0.003	0.001	0.002	0.002	0.001	0.002
549.00	0.000	0.001	0.003	0.001	0.008	0.001	0.001	0.003	0.001	0.002	0.002	0.001	0.002
550.00	0.000	0.001	0.003	0.001	0.008	0.001	0.001	0.003	0.001	0.002	0.002	0.001	0.002
551.00	-0.000	0.001	0.003	0.001	0.008	0.001	0.000	0.003	0.001	0.002	0.002	0.001	0.002
552.00	0.000	0.001	0.003	0.001	0.008	0.001	0.000	0.003	0.001	0.002	0.002	0.001	0.002
553.00	0.000	0.001	0.003	0.001	0.008	0.001	0.001	0.003	0.001	0.002	0.002	0.001	0.002
554.00	0.000	0.001	0.003	0.001	0.008	0.001	0.001	0.003	0.001	0.002	0.002	0.001	0.002
555.00	0.000	0.001	0.003	0.001	0.008	0.001	0.001	0.003	0.001	0.002	0.002	0.001	0.002
556.00	0.000	0.001	0.003	0.001	0.008	0.001	0.000	0.003	0.001	0.002	0.002	0.001	0.002
557.00	0.000	0.001	0.003	0.001	0.008	0.001	0.001	0.003	0.001	0.002	0.002	0.001	0.002
558.00	0.000	0.001	0.003	0.001	0.008	0.001	0.001	0.003	0.001	0.002	0.002	0.001	0.002
559.00	0.000	0.001	0.003	0.001	0.008	0.001	0.001	0.003	0.001	0.002	0.002	0.001	0.002
560.00	0.000	0.001	0.003	0.001	0.008	0.001	0.001	0.003	0.001	0.002	0.002	0.001	0.002
561.00	0.000	0.001	0.003	0.001	0.008	0.001	0.001	0.003	0.001	0.002	0.002	0.001	0.002
562.00	0.000	0.001	0.003	0.001	0.007	0.001	0.001	0.003	0.001	0.002	0.002	0.001	0.002
563.00	0.000	0.001	0.003	0.001	0.007	0.001	0.000	0.003	0.001	0.002	0.002	0.001	0.002
564.00	0.000	0.001	0.003	0.001	0.007	0.001	0.001	0.003	0.001	0.002	0.002	0.001	0.002
565.00	0.000	0.001	0.003	0.001	0.007	0.001	0.001	0.003	0.001	0.002	0.002	0.001	0.002
566.00	0.000	0.001	0.003	0.001	0.007	0.001	0.001	0.003	0.001	0.002	0.002	0.001	0.002
567.00	0.000	0.001	0.003	0.001	0.007	0.001	0.001	0.003	0.001	0.002	0.002	0.001	0.002
568.00	0.000	0.001	0.003	0.001	0.007	0.001	0.001	0.003	0.001	0.002	0.002	0.001	0.002
569.00	0.000	0.001	0.003	0.001	0.007	0.001	0.001	0.003	0.001	0.002	0.002	0.001	0.002
570.00	0.000	0.001	0.003	0.001	0.007	0.001	0.001	0.003	0.001	0.002	0.002	0.001	0.002
571.00	0.000	0.001	0.003	0.001	0.007	0.001	0.001	0.003	0.001	0.002	0.002	0.001	0.002
572.00	0.000	0.001	0.003	0.001	0.007	0.001	0.001	0.003	0.001	0.002	0.002	0.001	0.002
573.00	0.000	0.001	0.003	0.001	0.007	0.001	0.001	0.003	0.001	0.002	0.002	0.001	0.002
574.00	0.000	0.001	0.003	0.001	0.007	0.001	0.001	0.003	0.001	0.002	0.002	0.001	0.002
575.00	0.000	0.001	0.003	0.001	0.007	0.001	0.001	0.003	0.001	0.002	0.002	0.001	0.002
576.00	0.000	0.001	0.003	0.001	0.007	0.001	0.001	0.003	0.001	0.002	0.002	0.001	0.002
577.00	0.000	0.001	0.003	0.001	0.007	0.001	0.001	0.003	0.001	0.002	0.002	0.001	0.002
578.00	0.000	0.001	0.003	0.001	0.007	0.001	0.001	0.003	0.001	0.002	0.002	0.001	0.002
579.00	0.000	0.001	0.003	0.001	0.007	0.001	0.001	0.003	0.001	0.002	0.002	0.001	0.002
580.00	0.000	0.001	0.003	0.001	0.007	0.001	0.001	0.003	0.001	0.002	0.002	0.001	0.002
581.00	0.000	0.001	0.003	0.001	0.007	0.001	0.001	0.003	0.001	0.002	0.002	0.001	0.002
582.00	0.000	0.001	0.003	0.001	0.007	0.001	0.001	0.003	0.001	0.002	0.002	0.001	0.002
583.00	0.000	0.001	0.003	0.001	0.007	0.001	0.001	0.003	0.001	0.002	0.002	0.001	0.002
584.00	0.000	0.001	0.003	0.001	0.007	0.001	0.001	0.003	0.001	0.002	0.002	0.001	0.002
585.00	0.000	0.001	0.003	0.001	0.007	0.001	0.001	0.003	0.001	0.002	0.002	0.001	0.002
586.00	0.000	0.001	0.003	0.001	0.007	0.001	0.001	0.003	0.001	0.002	0.002	0.001	0.002
587.00	0.000	0.001	0.003	0.001	0.007	0.001	0.001	0.003	0.001	0.002	0.002	0.001	0.002
588.00	0.000	0.001	0.003	0.001	0.007	0.001	0.001	0.003	0.001	0.002	0.002	0.001	0.002
589.00	0.000	0.001	0.003	0.001	0.007	0.001	0.001	0.002	0.001	0.002	0.002	0.001	0.002
590.00	0.000	0.001	0.003	0.001	0.007	0.001	0.000	0.002	0.001	0.002	0.002	0.001	0.002
591.00	0.000	0.001	0.003	0.001	0.007	0.001	0.001	0.002	0.001	0.002	0.002	0.001	0.002
592.00	0.000	0.001	0.003	0.001	0.007	0.001	0.001	0.002	0.001	0.002	0.002	0.001	0.002
593.00	0.000	0.001	0.003	0.001	0.007	0.001	0.001	0.003	0.001	0.002	0.002	0.001	0.002
594.00	0.000	0.001	0.003	0.001	0.007	0.001	0.001	0.002	0.001	0.002	0.002	0.001	0.002
595.00	0.000	0.001	0.003	0.001	0.007	0.001	0.000	0.002	0.001	0.002	0.002	0.001	0.001
596.00	0.000	0.001	0.003	0.001	0.007	0.001	0.001	0.002	0.001	0.002	0.002	0.001	0.002
597.00	0.000	0.001	0.003	0.001	0.007	0.001	0.000	0.002	0.001	0.002	0.002	0.001	0.002
598.00	0.000	0.001	0.003	0.001	0.007	0.001	0.000	0.002	0.001	0.002	0.002	0.001	0.001
599.00	0.000	0.001	0.003	0.001	0.007	0.001	0.000	0.002	0.001	0.002	0.002	0.001	0.001
600.00	0.000	0.001	0.003	0.001	0.007	0.001	0.000	0.002	0.001	0.002	0.002	0.001	0.001
601.00	0.000	0.001	0.003	0.001	0.007	0.001	0.000	0.002	0.001	0.002	0.002	0.001	0.001
602.00	0.000	0.001	0.003	0.001	0.007	0.001	0.001	0.002	0.001	0.002	0.002	0.001	0.001
603.00	0.000	0.001	0.003	0.001	0.007	0.001	0.000	0.002	0.001	0.002	0.002	0.001	0.001
604.00	0.000	0.001	0.002	0.001	0.007	0.001	0.000	0.002	0.001	0.002	0.002	0.001	0.001
605.00	0.000	0.001	0.002	0.001	0.007	0.001	0.000	0.002	0.001	0.002	0.002	0.001	0.001
606.00	0.000	0.001	0.002	0.001	0.007	0.001	0.000	0.002	0.001	0.002	0.002	0.001	0.001
607.00	0.000	0.001	0.002	0.001	0.007	0.001	0.000	0.002	0.001	0.002	0.002	0.001	0.001
608.00	0.000	0.001	0.002	0.001	0.007	0.001	0.000	0.002	0.001	0.001	0.002	0.001	0.001
609.00	0.000	0.001	0.002	0.001	0.007	0.001	0.000	0.002	0.001	0.001	0.002	0.001	0.001
610.00	0.000	0.001	0.002	0.001	0.007	0.001	0.000	0.002	0.001	0.002	0.002	0.001	0.001
611.00	0.000	0.001	0.002	0.001	0.007	0.001	0.000	0.002	0.001	0.002	0.002	0.001	0.001
612.00	0.000	0.001	0.002	0.000	0.007	0.001	0.000	0.002	0.001	0.002	0.002	0.001	0.001
613.00	0.000	0.001	0.002	0.000	0.007	0.001	0.000	0.002	0.001	0.001	0.002	0.001	0.001
614.00	0.000	0.001	0.002	0.000	0.007	0.001	0.000	0.002	0.001	0.001	0.002	0.001	0.001
615.00	0.000	0.001	0.002	0.000	0.006	0.001	0.000	0.002	0.001	0.001	0.002	0.001	0.001
616.00	0.000	0.001	0.002	0.000	0.006	0.001	0.000	0.002	0.001	0.001	0.002	0.001	0.001
617.00	-0.000	0.001	0.002	0.000	0.006	0.001	0.000	0.002	0.001	0.001	0.002	0.001	0.001
618.00	0.000	0.001	0.002	0.000	0.006	0.001	0.000	0.002	0.001	0.001	0.002	0.001	0.001
619.00	0.000	0.001	0.002	0.000	0.006	0.001	0.000	0.002	0.001	0.001	0.002	0.001	0.001
620.00	0.000	0.001	0.002	0.000	0.006	0.001	0.000	0.002	0.001	0.001	0.002	0.001	0.001
621.00	-0.000	0.001	0.002	0.000	0.006	0.001	0.000	0.002	0.001	0.001	0.002	0.001	0.001
622.00	-0.000	0.001	0.002	0.000	0.006	0.001	0.000	0.002	0.001	0.001	0.002	0.001	0.001
623.00	-0.000	0.001	0.002	0.000	0.006	0.001	0.000	0.002	0.001	0.001	0.002	0.001	0.001
624.00	0.000	0.001	0.002	0.000	0.006	0.001	0.000	0.002	0.001	0.001	0.002	0.001	0.001
625.00	0.000	0.001	0.002	0.000	0.006	0.001	0.000	0.002	0.001	0.001	0.002	0.001	0.001
626.00	-0.000	0.001	0.002	0.000	0.006	0.001	0.000	0.002	0.001	0.001	0.002	0.001	0.001
627.00	-0.000	0.001	0.002	0.000	0.006	0.001	0.000	0.002	0.001	0.001	0.002	0.001	0.001
628.00	-0.000	0.001	0.002	0.000	0.006	0.001	0.000	0.002	0.001	0.001	0.002	0.001	0.001
629.00	-0.000	0.001	0.002	0.000	0.006	0.001	0.000	0.002	0.001	0.001	0.002	0.001	0.001
630.00	-0.000	0.001	0.002	0.000	0.006	0.001	0.000	0.002	0.001	0.001	0.002	0.001	0.001
631.00	-0.000	0.001	0.002	0.000	0.006	0.001	0.000	0.002	0.001	0.001	0.002	0.001	0.001
632.00	-0.000	0.001	0.002	0.000	0.006	0.001	0.000	0.002	0.001	0.001	0.002	0.001	0.001
633.00	-0.000	0.001	0.002	0.000	0.006	0.001	0.000	0.002	0.001	0.001	0.002	0.001	0.001
634.00	-0.000	0.001	0.002	0.000	0.006	0.001	0.000	0.002	0.001	0.001	0.002	0.001	0.001
635.00	-0.000	0.001	0.002	0.000	0.006	0.001	0.000	0.002	0.001	0.001	0.002	0.001	0.001
636.00	-0.000	0.001	0.002	0.000	0.006	0.001	0.000	0.002	0.001	0.001	0.002	0.001	0.001
637.00	-0.000	0.001	0.002	0.000	0.006	0.001	0.000	0.002	0.001	0.001	0.002	0.001	0.001
638.00	-0.000	0.001	0.002	0.000	0.006	0.001	0.000	0.002	0.001	0.001	0.002	0.001	0.001
639.00	-0.000	0.001	0.002	0.000	0.006	0.001	0.000	0.002	0.001	0.001	0.002	0.001	0.001
640.00	-0.000	0.001	0.002	0.000	0.006	0.001	0.000	0.002	0.001	0.001	0.002	0.001	0.001
641.00	-0.000	0.001	0.002	0.000	0.006	0.001	0.000	0.002	0.001	0.001	0.002	0.001	0.001
642.00	-0.000	0.001	0.002	0.000	0.006	0.001	0.000	0.002	0.001	0.001	0.002	0.001	0.001
643.00	-0.000	0.001	0.002	0.000	0.006	0.001	0.000	0.002	0.001	0.001	0.002	0.001	0.001
644.00	-0.000	0.001	0.002	0.000	0.006	0.001	0.000	0.002	0.001	0.001	0.002	0.001	0.001
645.00	-0.000	0.001	0.002	0.000	0.006	0.001	0.000	0.002	0.001	0.001	0.002	0.001	0.001
646.00	-0.000	0.001	0.002	0.000	0.006	0.001	0.000	0.002	0.001	0.001	0.002	0.001	0.001
647.00	-0.000	0.001	0.002	0.000	0.006	0.001	0.000	0.002	0.001	0.001	0.002	0.001	0.001
648.00	-0.000	0.001	0.002	0.000	0.006	0.001	0.000	0.002	0.001	0.001	0.002	0.001	0.001
649.00	-0.000	0.001	0.002	0.000	0.006	0.001	0.000	0.002	0.001	0.001	0.002	0.001	0.001
650.00	-0.000	0.001	0.002	0.000	0.006	0.001	0.000	0.002	0.001	0.001	0.002	0.001	0.001
651.00	-0.000	0.001	0.002	0.000	0.006	0.001	0.000	0.002	0.001	0.001	0.002	0.001	0.001
652.00	-0.000	0.001	0.002	0.000	0.006	0.001	0.000	0.002	0.001	0.001	0.002	0.001	0.001
653.00	-0.000	0.001	0.002	0.000	0.006	0.001	0.000	0.002	0.001	0.001	0.002	0.001	0.001
654.00	-0.000	0.001	0.002	0.000	0.006	0.001	0.000	0.002	0.001	0.001	0.002	0.001	0.001
655.00	0.000	0.001	0.002	0.000	0.006	0.001	0.000	0.002	0.001	0.001	0.002	0.001	0.001
656.00	0.000	0.001	0.002	0.000	0.006	0.001	0.000	0.002	0.001	0.001	0.002	0.001	0.001
657.00	-0.000	0.001	0.002	0.000	0.006	0.001	0.000	0.002	0.001	0.001	0.002	0.001	0.001
658.00	0.000	0.001	0.002	0.000	0.006	0.001	0.000	0.002	0.001	0.001	0.002	0.001	0.001
659.00	0.000	0.001	0.002	0.001	0.006	0.001	0.000	0.002	0.001	0.001	0.002	0.001	0.001
660.00	0.000	0.001	0.002	0.000	0.006	0.001	0.000	0.002	0.001	0.001	0.002	0.001	0.001
661.00	-0.000	0.001	0.002	0.000	0.006	0.001	0.000	0.002	0.001	0.001	0.002	0.001	0.001
662.00	0.000	0.001	0.002	0.000	0.006	0.001	0.000	0.002	0.001	0.001	0.002	0.001	0.001
663.00	0.000	0.001	0.002	0.000	0.006	0.001	0.000	0.002	0.001	0.001	0.002	0.001	0.001
664.00	0.000	0.001	0.002	0.000	0.006	0.001	0.000	0.002	0.001	0.001	0.002	0.001	0.001
665.00	0.000	0.001	0.002	0.000	0.006	0.001	0.000	0.002	0.001	0.001	0.002	0.001	0.001
666.00	0.000	0.001	0.002	0.000	0.006	0.001	0.000	0.002	0.001	0.001	0.002	0.001	0.001
667.00	-0.000	0.001	0.002	0.000	0.006	0.001	0.000	0.002	0.001	0.001	0.002	0.001	0.001
668.00	0.000	0.001	0.002	0.000	0.006	0.001	0.000	0.002	0.001	0.001	0.002	0.001	0.001
669.00	0.000	0.001	0.002	0.000	0.006	0.001	0.000	0.002	0.001	0.001	0.002	0.001	0.001
670.00	0.000	0.001	0.002	0.000	0.006	0.001	0.000	0.002	0.001	0.001	0.002	0.001	0.001
671.00	0.000	0.001	0.002	0.000	0.006	0.001	0.000	0.002	0.001	0.001	0.002	0.001	0.001
672.00	0.000	0.001	0.002	0.000	0.006	0.001	0.000	0.002	0.001	0.001	0.002	0.001	0.001
673.00	0.000	0.001	0.002	0.000	0.006	0.001	0.000	0.002	0.001	0.001	0.002	0.001	0.001
674.00	0.000	0.001	0.002	0.000	0.006	0.001	0.000	0.002	0.001	0.001	0.002	0.001	0.001
675.00	0.000	0.001	0.002	0.000	0.006	0.001	0.000	0.002	0.001	0.001	0.002	0.001	0.001
676.00	0.000	0.001	0.002	0.000	0.006	0.001	0.000	0.002	0.001	0.001	0.002	0.001	0.001
677.00	0.000	0.001	0.002	0.000	0.006	0.001	0.000	0.002	0.001	0.001	0.002	0.001	0.001
678.00	0.000	0.001	0.002	0.000	0.006	0.001	0.000	0.002	0.001	0.001	0.002	0.000	0.001
679.00	-0.000	0.001	0.002	0.000	0.006	0.001	0.000	0.002	0.001	0.001	0.002	0.000	0.001
680.00	0.000	0.001	0.002	0.000	0.006	0.001	0.000	0.002	0.001	0.001	0.002	0.001	0.001
681.00	0.000	0.001	0.002	0.000	0.006	0.001	0.000	0.002	0.001	0.001	0.002	0.001	0.001
682.00	0.000	0.001	0.002	0.000	0.006	0.001	0.000	0.002	0.001	0.001	0.002	0.001	0.001
683.00	0.000	0.001	0.002	0.000	0.006	0.001	0.000	0.002	0.001	0.001	0.002	0.001	0.001
684.00	0.000	0.001	0.002	0.000	0.006	0.001	0.000	0.002	0.001	0.001	0.002	0.001	0.001
685.00	0.000	0.001	0.002	0.000	0.006	0.001	0.000	0.002	0.001	0.001	0.002	0.001	0.001
686.00	0.000	0.001	0.002	0.000	0.006	0.001	0.000	0.002	0.001	0.001	0.002	0.001	0.001
687.00	0.000	0.001	0.002	0.000	0.006	0.001	0.000	0.002	0.001	0.001	0.002	0.001	0.001
688.00	0.000	0.001	0.002	0.000	0.006	0.001	0.000	0.002	0.001	0.001	0.002	0.001	0.001
689.00	0.000	0.001	0.002	0.000	0.006	0.001	0.000	0.002	0.001	0.001	0.002	0.001	0.001
690.00	0.000	0.001	0.002	0.000	0.006	0.001	0.000	0.002	0.001	0.001	0.002	0.001	0.001
691.00	0.000	0.001	0.002	0.000	0.006	0.001	0.000	0.002	0.001	0.001	0.002	0.001	0.001
692.00	0.000	0.001	0.002	0.000	0.006	0.001	0.000	0.002	0.001	0.001	0.002	0.001	0.001
693.00	-0.000	0.001	0.002	0.000	0.006	0.001	0.000	0.002	0.001	0.001	0.002	0.001	0.001
694.00	-0.000	0.001	0.002	0.000	0.006	0.001	0.000	0.002	0.001	0.001	0.002	0.001	0.001
695.00	0.000	0.001	0.002	0.000	0.006	0.001	0.000	0.002	0.001	0.001	0.002	0.001	0.001
696.00	0.000	0.001	0.002	0.000	0.006	0.001	0.000	0.002	0.001	0.001	0.002	0.001	0.001
697.00	-0.000	0.001	0.002	0.000	0.006	0.001	0.000	0.002	0.001	0.001	0.002	0.001	0.001
698.00	-0.000	0.001	0.002	0.000	0.006	0.001	0.000	0.002	0.001	0.001	0.002	0.001	0.001
699.00	0.000	0.001	0.002	0.000	0.006	0.001	0.000	0.002	0.001	0.001	0.002	0.001	0.001
700.00	0.000	0.001	0.002	0.000	0.006	0.001	0.000	0.002	0.001	0.001	0.002	0.001	0.001
701.00	0.000	0.001	0.002	0.000	0.006	0.001	0.000	0.002	0.001	0.001	0.002	0.001	0.001
702.00	0.000	0.001	0.002	0.000	0.006	0.001	0.000	0.002	0.001	0.001	0.002	0.001	0.001
703.00	-0.000	0.001	0.002	0.000	0.006	0.001	0.000	0.002	0.001	0.001	0.002	0.001	0.001
704.00	-0.000	0.001	0.002	0.000	0.006	0.001	0.000	0.002	0.001	0.001	0.002	0.001	0.001
705.00	-0.000	0.001	0.002	0.000	0.006	0.001	0.000	0.002	0.001	0.001	0.002	0.001	0.001
706.00	0.000	0.001	0.002	0.000	0.006	0.001	0.000	0.002	0.001	0.001	0.002	0.001	0.001
707.00	0.000	0.001	0.002	0.000	0.006	0.001	0.000	0.002	0.001	0.001	0.002	0.001	0.001
708.00	-0.000	0.001	0.002	0.000	0.006	0.001	0.000	0.002	0.001	0.001	0.002	0.001	0.001
709.00	-0.000	0.001	0.002	0.000	0.006	0.001	0.000	0.002	0.001	0.001	0.002	0.001	0.001
710.00	-0.000	0.001	0.002	0.000	0.006	0.001	0.000	0.002	0.001	0.001	0.002	0.001	0.001
711.00	-0.000	0.001	0.002	0.000	0.006	0.001	0.000	0.002	0.001	0.001	0.002	0.001	0.001
712.00	-0.000	0.001	0.001	0.000	0.006	0.001	0.000	0.001	0.001	0.001	0.001	0.001	0.001
713.00	-0.000	0.001	0.001	0.000	0.006	0.001	0.000	0.001	0.001	0.001	0.002	0.001	0.001
714.00	-0.000	0.001	0.002	0.000	0.006	0.001	0.000	0.002	0.001	0.001	0.002	0.001	0.001
715.00	-0.000	0.001	0.001	0.000	0.006	0.001	0.000	0.002	0.001	0.001	0.002	0.001	0.001
716.00	0.000	0.001	0.002	0.000	0.006	0.001	0.000	0.002	0.001	0.001	0.002	0.001	0.001
717.00	0.000	0.001	0.002	0.000	0.006	0.001	0.000	0.002	0.001	0.001	0.002	0.001	0.001
718.00	0.000	0.001	0.002	0.000	0.006	0.001	0.000	0.002	0.001	0.001	0.002	0.001	0.001
719.00	-0.000	0.001	0.001	0.000	0.006	0.001	0.000	0.002	0.001	0.001	0.002	0.001	0.001
720.00	-0.000	0.001	0.001	0.000	0.005	0.001	0.000	0.001	0.001	0.001	0.001	0.000	0.001
721.00	-0.000	0.001	0.001	0.000	0.005	0.001	0.000	0.002	0.001	0.001	0.002	0.001	0.001
722.00	-0.000	0.001	0.001	0.000	0.005	0.001	0.000	0.002	0.001	0.001	0.002	0.001	0.001
723.00	-0.000	0.001	0.001	0.000	0.006	0.001	0.000	0.002	0.001	0.001	0.002	0.001	0.001
724.00	-0.000	0.001	0.001	0.000	0.005	0.001	0.000	0.002	0.001	0.001	0.002	0.001	0.001
725.00	-0.000	0.001	0.001	0.000	0.005	0.001	0.000	0.002	0.001	0.001	0.002	0.001	0.001
726.00	-0.000	0.001	0.001	0.000	0.005	0.001	0.000	0.002	0.001	0.001	0.002	0.001	0.001
727.00	-0.000	0.001	0.001	0.000	0.006	0.001	0.000	0.002	0.001	0.001	0.002	0.001	0.001
728.00	0.000	0.001	0.001	0.000	0.005	0.001	0.000	0.002	0.001	0.001	0.002	0.001	0.001
729.00	-0.000	0.001	0.001	0.000	0.005	0.001	0.000	0.001	0.001	0.001	0.001	0.001	0.001
730.00	-0.000	0.001	0.001	0.000	0.005	0.001	0.000	0.001	0.001	0.001	0.001	0.001	0.001
731.00	-0.000	0.001	0.001	0.000	0.005	0.001	0.000	0.001	0.001	0.001	0.001	0.001	0.001
732.00	0.000	0.001	0.001	0.000	0.005	0.001	0.000	0.002	0.001	0.001	0.002	0.001	0.001
733.00	-0.000	0.001	0.001	0.000	0.005	0.001	0.000	0.002	0.001	0.001	0.002	0.001	0.001
734.00	-0.000	0.001	0.001	0.000	0.005	0.001	0.000	0.002	0.001	0.001	0.001	0.000	0.001
735.00	-0.000	0.001	0.001	0.000	0.005	0.001	0.000	0.001	0.001	0.001	0.001	0.000	0.001
736.00	-0.000	0.001	0.001	0.000	0.005	0.001	0.000	0.001	0.001	0.001	0.002	0.001	0.001
737.00	-0.000	0.001	0.001	0.000	0.005	0.001	0.000	0.001	0.001	0.001	0.002	0.001	0.001
738.00	-0.000	0.001	0.001	0.000	0.005	0.001	0.000	0.001	0.001	0.001	0.001	0.000	0.001
739.00	-0.000	0.001	0.001	0.000	0.005	0.001	0.000	0.002	0.001	0.001	0.001	0.000	0.001
740.00	0.000	0.001	0.001	0.000	0.005	0.001	0.000	0.002	0.001	0.001	0.002	0.001	0.001
741.00	0.000	0.001	0.001	0.000	0.005	0.001	0.000	0.002	0.001	0.001	0.002	0.001	0.001
742.00	0.000	0.001	0.002	0.000	0.005	0.001	0.000	0.002	0.001	0.001	0.002	0.001	0.001
743.00	0.000	0.001	0.001	0.000	0.005	0.001	0.000	0.002	0.001	0.001	0.002	0.001	0.001
744.00	-0.000	0.001	0.001	0.000	0.005	0.001	0.000	0.002	0.001	0.001	0.001	0.001	0.001
745.00	0.000	0.001	0.001	0.000	0.005	0.001	0.000	0.002	0.001	0.001	0.001	0.001	0.001
746.00	-0.000	0.001	0.001	0.000	0.005	0.001	0.000	0.002	0.001	0.001	0.002	0.001	0.001
747.00	-0.000	0.001	0.001	0.000	0.005	0.001	0.000	0.001	0.001	0.001	0.001	0.000	0.001
748.00	-0.000	0.001	0.001	0.000	0.005	0.001	0.000	0.001	0.001	0.001	0.001	0.001	0.001
749.00	0.000	0.001	0.001	0.000	0.005	0.001	0.000	0.002	0.001	0.001	0.001	0.001	0.001
750.00	0.000	0.001	0.001	0.000	0.005	0.001	0.000	0.002	0.001	0.001	0.001	0.001	0.001
751.00	0.000	0.001	0.001	0.000	0.005	0.001	0.000	0.002	0.001	0.001	0.001	0.001	0.001
752.00	0.000	0.001	0.002	0.000	0.005	0.001	0.000	0.002	0.001	0.001	0.002	0.001	0.001
753.00	0.000	0.001	0.002	0.000	0.005	0.001	0.000	0.002	0.001	0.001	0.002	0.001	0.001
754.00	0.000	0.001	0.001	0.000	0.005	0.001	0.000	0.002	0.001	0.001	0.001	0.001	0.001
755.00	0.000	0.001	0.001	0.000	0.005	0.001	0.000	0.002	0.001	0.001	0.002	0.001	0.001
756.00	0.000	0.001	0.001	0.000	0.005	0.001	0.000	0.002	0.001	0.001	0.002	0.001	0.001
757.00	0.000	0.001	0.001	0.000	0.005	0.001	0.000	0.002	0.001	0.001	0.002	0.001	0.001
758.00	0.000	0.001	0.001	0.000	0.005	0.001	0.000	0.002	0.001	0.001	0.002	0.001	0.001
759.00	0.000	0.001	0.002	0.001	0.006	0.001	0.000	0.002	0.001	0.001	0.002	0.001	0.001
760.00	0.001	0.002	0.003	0.001	0.006	0.002	0.001	0.003	0.002	0.002	0.003	0.002	0.002
761.00	0.000	0.001	0.002	0.001	0.005	0.001	0.001	0.002	0.001	0.001	0.002	0.001	0.001
762.00	0.000	0.001	0.002	0.000	0.005	0.001	0.000	0.001	0.001	0.001	0.002	0.001	0.001
763.00	0.000	0.001	0.001	0.000	0.005	0.001	0.000	0.001	0.001	0.001	0.002	0.001	0.001
764.00	0.000	0.001	0.001	0.000	0.005	0.001	0.000	0.001	0.001	0.001	0.002	0.001	0.001
765.00	0.000	0.001	0.001	0.000	0.005	0.001	0.000	0.001	0.001	0.001	0.002	0.001	0.001
766.00	0.000	0.001	0.001	0.000	0.005	0.001	0.000	0.001	0.001	0.001	0.002	0.001	0.001
767.00	0.000	0.001	0.002	0.000	0.005	0.001	0.000	0.001	0.001	0.001	0.002	0.001	0.001
768.00	0.000	0.001	0.002	0.000	0.005	0.001	0.000	0.001	0.001	0.001	0.002	0.001	0.001
769.00	0.000	0.001	0.002	0.000	0.005	0.001	0.000	0.001	0.001	0.001	0.002	0.001	0.001
770.00	0.000	0.001	0.002	0.000	0.005	0.001	0.000	0.001	0.001	0.001	0.002	0.001	0.001
771.00	-0.000	0.001	0.002	0.000	0.005	0.001	0.000	0.001	0.001	0.001	0.002	0.001	0.001
772.00	0.000	0.001	0.002	0.000	0.005	0.001	0.000	0.001	0.001	0.001	0.002	0.001	0.001
773.00	0.000	0.001	0.002	0.000	0.005	0.001	0.000	0.001	0.001	0.001	0.002	0.001	0.001
774.00	0.000	0.001	0.002	0.000	0.005	0.001	0.000	0.001	0.001	0.001	0.002	0.001	0.001
775.00	0.000	0.001	0.002	0.000	0.005	0.001	0.000	0.001	0.001	0.001	0.002	0.001	0.001
776.00	0.000	0.001	0.002	0.000	0.005	0.001	0.000	0.001	0.001	0.001	0.002	0.001	0.001
777.00	0.000	0.001	0.002	0.000	0.005	0.001	0.000	0.001	0.001	0.001	0.002	0.001	0.001
778.00	0.000	0.001	0.002	0.000	0.005	0.001	0.000	0.001	0.001	0.001	0.002	0.001	0.001
779.00	0.000	0.001	0.002	0.001	0.005	0.001	0.000	0.001	0.001	0.001	0.002	0.001	0.001
780.00	0.000	0.001	0.002	0.001	0.005	0.001	0.000	0.001	0.001	0.001	0.002	0.001	0.001
781.00	0.000	0.001	0.002	0.000	0.005	0.001	0.000	0.001	0.001	0.001	0.002	0.001	0.001
782.00	0.000	0.001	0.002	0.000	0.005	0.001	0.000	0.001	0.001	0.001	0.002	0.001	0.001
783.00	0.000	0.001	0.002	0.000	0.005	0.001	0.000	0.001	0.001	0.001	0.002	0.001	0.001
784.00	0.000	0.001	0.002	0.001	0.005	0.001	0.000	0.001	0.001	0.001	0.002	0.001	0.001
785.00	0.000	0.001	0.002	0.001	0.005	0.001	0.000	0.001	0.001	0.001	0.002	0.001	0.001
786.00	0.000	0.001	0.002	0.000	0.005	0.001	0.000	0.001	0.001	0.001	0.002	0.001	0.001
787.00	0.000	0.001	0.002	0.000	0.005	0.001	0.000	0.001	0.001	0.001	0.002	0.001	0.001
788.00	0.000	0.001	0.002	0.001	0.005	0.001	0.000	0.001	0.001	0.001	0.002	0.001	0.001
789.00	0.000	0.001	0.002	0.001	0.005	0.001	0.000	0.001	0.001	0.001	0.002	0.001	0.001
790.00	0.000	0.001	0.002	0.001	0.005	0.001	0.000	0.001	0.001	0.001	0.002	0.001	0.001
791.00	0.000	0.001	0.002	0.001	0.005	0.001	0.000	0.001	0.001	0.001	0.002	0.001	0.001
792.00	0.000	0.001	0.002	0.001	0.005	0.001	0.000	0.001	0.001	0.001	0.002	0.001	0.001
793.00	0.000	0.001	0.002	0.001	0.005	0.001	0.000	0.001	0.001	0.001	0.002	0.001	0.001
794.00	0.000	0.001	0.002	0.000	0.005	0.001	0.000	0.001	0.001	0.001	0.002	0.001	0.001
795.00	0.000	0.001	0.002	0.001	0.005	0.001	0.000	0.001	0.001	0.001	0.002	0.001	0.001
796.00	0.000	0.001	0.002	0.000	0.005	0.001	0.000	0.001	0.001	0.001	0.002	0.001	0.001
797.00	0.000	0.001	0.002	0.000	0.005	0.001	0.000	0.001	0.001	0.001	0.002	0.001	0.001
798.00	0.000	0.001	0.002	0.001	0.005	0.001	0.000	0.001	0.001	0.001	0.002	0.001	0.001
799.00	0.000	0.001	0.002	0.001	0.005	0.001	0.000	0.001	0.001	0.001	0.002	0.001	0.001
800.00	0.000	0.001	0.002	0.001	0.005	0.001	0.000	0.001	0.001	0.001	0.002	0.001	0.001
801.00	0.000	0.001	0.002	0.001	0.005	0.001	0.000	0.001	0.001	0.001	0.002	0.001	0.001
802.00	0.000	0.001	0.002	0.001	0.005	0.001	0.000	0.001	0.001	0.001	0.002	0.001	0.001
803.00	0.000	0.001	0.002	0.001	0.005	0.001	0.000	0.001	0.001	0.001	0.002	0.001	0.001
804.00	0.000	0.001	0.002	0.001	0.005	0.001	0.000	0.001	0.001	0.001	0.002	0.001	0.001
805.00	0.000	0.001	0.002	0.001	0.005	0.001	0.000	0.001	0.001	0.001	0.002	0.001	0.001
806.00	0.000	0.001	0.002	0.001	0.005	0.001	0.000	0.001	0.001	0.001	0.002	0.001	0.001
807.00	0.000	0.001	0.002	0.001	0.005	0.001	0.000	0.001	0.001	0.001	0.002	0.001	0.001
808.00	0.000	0.001	0.002	0.001	0.005	0.001	0.000	0.001	0.001	0.001	0.002	0.001	0.001
809.00	0.000	0.001	0.002	0.001	0.005	0.001	0.000	0.001	0.001	0.001	0.002	0.001	0.001
810.00	0.000	0.001	0.002	0.001	0.005	0.001	0.000	0.001	0.001	0.001	0.002	0.001	0.001
811.00	0.000	0.001	0.002	0.001	0.005	0.001	0.000	0.001	0.001	0.001	0.002	0.001	0.001
812.00	0.000	0.001	0.002	0.001	0.005	0.001	0.000	0.001	0.001	0.001	0.002	0.001	0.001
813.00	0.000	0.001	0.002	0.001	0.005	0.001	0.000	0.001	0.001	0.001	0.002	0.001	0.001
814.00	0.000	0.001	0.002	0.001	0.005	0.001	0.000	0.001	0.001	0.001	0.002	0.001	0.001
815.00	0.000	0.001	0.002	0.001	0.005	0.001	0.000	0.001	0.001	0.001	0.002	0.001	0.001
816.00	0.000	0.001	0.002	0.000	0.005	0.001	0.000	0.001	0.001	0.001	0.002	0.001	0.001
817.00	0.000	0.001	0.002	0.000	0.005	0.001	0.000	0.001	0.001	0.001	0.002	0.001	0.001
818.00	0.000	0.001	0.002	0.000	0.005	0.001	0.000	0.001	0.001	0.001	0.002	0.001	0.001
819.00	0.000	0.001	0.002	0.001	0.005	0.001	0.000	0.001	0.001	0.001	0.002	0.001	0.001
820.00	0.000	0.001	0.002	0.000	0.005	0.001	0.000	0.001	0.001	0.001	0.002	0.001	0.001
821.00	0.000	0.001	0.001	0.000	0.005	0.001	0.000	0.001	0.001	0.001	0.002	0.001	0.001
822.00	0.000	0.001	0.001	0.000	0.005	0.001	0.000	0.001	0.001	0.001	0.002	0.001	0.001
823.00	0.000	0.001	0.001	0.000	0.005	0.001	0.000	0.001	0.001	0.001	0.002	0.001	0.001
824.00	0.000	0.001	0.001	0.000	0.005	0.001	0.000	0.001	0.001	0.001	0.002	0.001	0.001
825.00	0.000	0.001	0.001	0.000	0.005	0.001	0.000	0.001	0.001	0.001	0.002	0.001	0.001
826.00	0.000	0.001	0.001	0.000	0.005	0.001	0.000	0.001	0.001	0.001	0.002	0.001	0.001
827.00	0.000	0.001	0.001	0.000	0.005	0.001	0.000	0.001	0.001	0.001	0.002	0.001	0.001
828.00	0.000	0.001	0.001	0.000	0.005	0.001	0.000	0.001	0.001	0.001	0.002	0.001	0.001
829.00	0.000	0.001	0.001	0.000	0.005	0.001	0.000	0.001	0.001	0.001	0.002	0.001	0.001
830.00	0.000	0.001	0.001	0.000	0.005	0.001	0.000	0.001	0.001	0.001	0.002	0.001	0.001
831.00	0.000	0.001	0.001	0.000	0.005	0.001	0.000	0.001	0.001	0.001	0.002	0.001	0.001
832.00	0.000	0.001	0.001	0.000	0.005	0.001	0.000	0.001	0.001	0.001	0.001	0.001	0.001
833.00	0.000	0.001	0.001	0.000	0.005	0.001	0.000	0.001	0.001	0.001	0.002	0.001	0.001
834.00	0.000	0.001	0.001	0.000	0.005	0.001	0.000	0.001	0.001	0.001	0.001	0.001	0.001
835.00	0.000	0.001	0.001	0.000	0.005	0.001	0.000	0.001	0.001	0.001	0.001	0.001	0.001
836.00	0.000	0.001	0.001	0.000	0.005	0.001	0.000	0.001	0.001	0.001	0.001	0.001	0.001
837.00	0.000	0.001	0.001	0.000	0.005	0.001	0.000	0.001	0.001	0.001	0.001	0.001	0.001
838.00	0.000	0.001	0.001	0.000	0.005	0.001	0.000	0.001	0.001	0.001	0.001	0.001	0.001
839.00	0.000	0.001	0.001	0.000	0.005	0.001	0.000	0.001	0.001	0.001	0.001	0.001	0.001
840.00	0.000	0.001	0.001	0.000	0.005	0.001	0.000	0.001	0.000	0.001	0.001	0.000	0.001
841.00	0.000	0.001	0.001	0.000	0.005	0.001	0.000	0.001	0.000	0.001	0.001	0.000	0.001
842.00	0.000	0.001	0.001	0.000	0.005	0.001	0.000	0.001	0.000	0.001	0.001	0.001	0.001
843.00	-0.000	0.001	0.001	0.000	0.005	0.001	0.000	0.001	0.000	0.001	0.001	0.000	0.001
844.00	0.000	0.001	0.001	0.000	0.005	0.001	0.000	0.001	0.000	0.001	0.001	0.000	0.001
845.00	0.000	0.001	0.001	0.000	0.005	0.001	0.000	0.001	0.001	0.001	0.001	0.001	0.001
846.00	0.000	0.001	0.001	0.000	0.005	0.001	0.000	0.001	0.000	0.001	0.001	0.001	0.001
847.00	-0.000	0.001	0.001	0.000	0.005	0.001	0.000	0.001	0.001	0.001	0.001	0.000	0.001
848.00	0.000	0.001	0.001	0.000	0.005	0.001	0.000	0.001	0.001	0.001	0.001	0.001	0.001
849.00	0.000	0.001	0.001	0.000	0.005	0.001	0.000	0.001	0.001	0.001	0.001	0.001	0.001
850.00	0.000	0.001	0.001	0.000	0.005	0.001	0.000	0.001	0.000	0.001	0.001	0.001	0.001
