Wavelength nm.,milliQ,CC4_16SEP24_01R2,CS1_16SEP24_01R2,CC3_16SEP24_15R1,CC2_16SEP24_01R2,CC4_16SEP24_15R2,CC4_16SEP24_15R1,CC2_16SEP24_01R1,CC4_16SEP24_9R1,CC3_16SEP24_01R1,CC4_16SEP24_6R1,CC3_16SEP24_BOTR2,CC4_16SEP24_BOTR1
190,0.004,0.423,0.35,0.395,0.493,0.39,0.406,0.468,0.442,0.408,0.456,0.405,0.446
191,0.004,0.386,0.334,0.364,0.464,0.359,0.372,0.435,0.409,0.38,0.422,0.369,0.417
192,0.002,0.351,0.321,0.332,0.434,0.33,0.339,0.401,0.378,0.352,0.39,0.341,0.39
193,0.003,0.315,0.306,0.299,0.402,0.296,0.305,0.368,0.345,0.323,0.36,0.31,0.361
194,0.003,0.285,0.293,0.273,0.377,0.268,0.278,0.34,0.318,0.301,0.335,0.284,0.335
195,0.004,0.258,0.281,0.248,0.352,0.243,0.252,0.314,0.294,0.278,0.311,0.261,0.312
196,0.004,0.235,0.27,0.227,0.33,0.222,0.232,0.291,0.274,0.258,0.291,0.24,0.293
197,0.004,0.215,0.26,0.21,0.311,0.203,0.213,0.272,0.256,0.241,0.274,0.223,0.277
198,0.004,0.196,0.251,0.193,0.293,0.187,0.196,0.254,0.241,0.225,0.258,0.206,0.262
199,0.004,0.181,0.243,0.179,0.276,0.173,0.181,0.24,0.228,0.209,0.244,0.192,0.25
200,0.004,0.168,0.236,0.168,0.262,0.161,0.169,0.228,0.217,0.195,0.231,0.181,0.239
201,0.003,0.156,0.228,0.157,0.249,0.15,0.157,0.216,0.206,0.183,0.219,0.17,0.229
202,0.004,0.145,0.222,0.147,0.238,0.14,0.148,0.207,0.197,0.172,0.208,0.16,0.22
203,0.004,0.137,0.216,0.139,0.23,0.133,0.14,0.199,0.19,0.163,0.2,0.152,0.213
204,0.004,0.129,0.211,0.132,0.221,0.126,0.132,0.191,0.183,0.155,0.191,0.145,0.206
205,0.003,0.123,0.205,0.126,0.214,0.12,0.126,0.184,0.176,0.148,0.184,0.139,0.2
206,0.003,0.117,0.2,0.12,0.208,0.114,0.12,0.179,0.171,0.142,0.177,0.133,0.193
207,0.003,0.112,0.195,0.116,0.202,0.11,0.115,0.174,0.165,0.137,0.171,0.128,0.188
208,0.003,0.108,0.191,0.112,0.197,0.106,0.111,0.169,0.16,0.133,0.165,0.123,0.182
209,0.003,0.103,0.185,0.107,0.192,0.102,0.107,0.164,0.155,0.128,0.159,0.119,0.176
210,0.003,0.1,0.18,0.104,0.187,0.098,0.103,0.161,0.15,0.123,0.154,0.115,0.17
211,0.003,0.096,0.175,0.1,0.183,0.095,0.1,0.157,0.145,0.12,0.148,0.111,0.164
212,0.003,0.093,0.169,0.097,0.179,0.092,0.096,0.153,0.139,0.115,0.142,0.107,0.158
213,0.003,0.09,0.163,0.094,0.174,0.089,0.093,0.149,0.134,0.111,0.136,0.104,0.151
214,0.003,0.087,0.158,0.091,0.17,0.086,0.09,0.146,0.128,0.108,0.13,0.1,0.145
215,0.003,0.085,0.152,0.088,0.166,0.084,0.087,0.142,0.123,0.104,0.125,0.097,0.138
216,0.003,0.082,0.146,0.085,0.162,0.081,0.084,0.139,0.118,0.101,0.12,0.093,0.132
217,0.002,0.079,0.14,0.082,0.159,0.079,0.082,0.136,0.113,0.098,0.114,0.09,0.126
218,0.003,0.077,0.135,0.08,0.156,0.077,0.08,0.134,0.108,0.095,0.11,0.087,0.12
219,0.003,0.076,0.131,0.077,0.153,0.075,0.078,0.132,0.104,0.093,0.105,0.085,0.114
220,0.003,0.074,0.126,0.075,0.15,0.074,0.076,0.129,0.099,0.09,0.101,0.082,0.109
221,0.003,0.072,0.121,0.074,0.148,0.072,0.074,0.127,0.095,0.087,0.097,0.08,0.104
222,0.003,0.071,0.117,0.072,0.145,0.07,0.072,0.125,0.091,0.085,0.093,0.078,0.099
223,0.003,0.069,0.113,0.07,0.143,0.069,0.07,0.123,0.088,0.083,0.089,0.076,0.095
224,0.003,0.067,0.109,0.068,0.14,0.067,0.069,0.12,0.084,0.08,0.086,0.074,0.091
225,0.003,0.066,0.105,0.066,0.138,0.066,0.067,0.118,0.081,0.078,0.082,0.072,0.087
226,0.003,0.064,0.102,0.065,0.135,0.064,0.066,0.117,0.078,0.076,0.079,0.07,0.083
227,0.003,0.063,0.098,0.063,0.133,0.063,0.064,0.115,0.075,0.074,0.076,0.068,0.08
228,0.003,0.062,0.095,0.061,0.13,0.062,0.062,0.113,0.072,0.072,0.074,0.066,0.076
229,0.002,0.06,0.092,0.06,0.128,0.06,0.061,0.111,0.07,0.07,0.071,0.065,0.074
230,0.002,0.059,0.089,0.059,0.126,0.059,0.059,0.109,0.068,0.068,0.068,0.063,0.071
231,0.002,0.058,0.087,0.057,0.123,0.058,0.058,0.107,0.066,0.066,0.066,0.061,0.068
232,0.002,0.056,0.085,0.056,0.121,0.057,0.057,0.105,0.064,0.064,0.064,0.06,0.066
233,0.002,0.055,0.083,0.055,0.119,0.056,0.056,0.104,0.062,0.062,0.062,0.059,0.064
234,0.002,0.054,0.08,0.054,0.117,0.054,0.055,0.102,0.061,0.06,0.06,0.058,0.063
235,0.002,0.053,0.079,0.053,0.115,0.053,0.053,0.101,0.059,0.059,0.059,0.056,0.061
236,0.002,0.053,0.077,0.052,0.113,0.052,0.052,0.099,0.058,0.057,0.057,0.055,0.06
237,0.002,0.052,0.075,0.051,0.111,0.051,0.052,0.098,0.057,0.056,0.056,0.054,0.058
238,0.002,0.051,0.074,0.05,0.11,0.051,0.051,0.096,0.056,0.055,0.055,0.053,0.057
239,0.002,0.05,0.072,0.049,0.108,0.05,0.05,0.095,0.055,0.054,0.053,0.053,0.056
240,0.002,0.049,0.071,0.049,0.107,0.049,0.049,0.094,0.054,0.053,0.053,0.052,0.055
241,0.002,0.048,0.07,0.048,0.105,0.048,0.048,0.093,0.053,0.052,0.052,0.051,0.054
242,0.002,0.048,0.069,0.047,0.104,0.048,0.048,0.091,0.052,0.052,0.051,0.05,0.053
243,0.002,0.048,0.068,0.047,0.103,0.047,0.047,0.091,0.052,0.051,0.05,0.05,0.053
244,0.002,0.047,0.067,0.046,0.102,0.047,0.047,0.09,0.051,0.05,0.049,0.049,0.052
245,0.002,0.047,0.066,0.046,0.101,0.046,0.046,0.089,0.05,0.05,0.049,0.048,0.051
246,0.002,0.046,0.066,0.045,0.1,0.046,0.046,0.088,0.05,0.049,0.048,0.048,0.051
247,0.002,0.046,0.065,0.045,0.1,0.045,0.045,0.087,0.049,0.048,0.048,0.047,0.05
248,0.002,0.045,0.064,0.044,0.099,0.045,0.045,0.086,0.048,0.048,0.047,0.047,0.05
249,0.002,0.045,0.063,0.044,0.098,0.044,0.044,0.086,0.048,0.047,0.046,0.047,0.049
250,0.002,0.044,0.062,0.043,0.097,0.044,0.044,0.085,0.048,0.047,0.046,0.046,0.049
251,0.002,0.044,0.062,0.043,0.097,0.044,0.044,0.085,0.047,0.047,0.045,0.046,0.048
252,0.002,0.044,0.061,0.043,0.096,0.043,0.043,0.084,0.047,0.046,0.045,0.045,0.048
253,0.002,0.043,0.061,0.042,0.095,0.043,0.043,0.083,0.046,0.046,0.045,0.045,0.048
254,0.002,0.043,0.06,0.042,0.095,0.043,0.042,0.083,0.046,0.045,0.044,0.044,0.047
255,0.002,0.043,0.06,0.042,0.094,0.042,0.042,0.082,0.045,0.045,0.044,0.044,0.047
256,0.002,0.042,0.059,0.041,0.093,0.042,0.042,0.082,0.045,0.045,0.044,0.044,0.046
257,0.002,0.042,0.059,0.041,0.093,0.042,0.042,0.081,0.045,0.044,0.043,0.043,0.046
258,0.002,0.042,0.058,0.041,0.092,0.041,0.041,0.081,0.044,0.044,0.043,0.043,0.046
259,0.002,0.041,0.058,0.04,0.092,0.041,0.041,0.08,0.044,0.043,0.042,0.042,0.045
260,0.002,0.041,0.057,0.04,0.091,0.04,0.041,0.08,0.043,0.043,0.042,0.042,0.045
261,0.002,0.041,0.057,0.04,0.091,0.04,0.04,0.079,0.043,0.043,0.042,0.042,0.045
262,0.002,0.04,0.056,0.039,0.09,0.04,0.04,0.078,0.043,0.042,0.041,0.042,0.044
263,0.002,0.04,0.056,0.039,0.089,0.039,0.039,0.078,0.042,0.042,0.041,0.041,0.044
264,0.002,0.039,0.055,0.038,0.088,0.039,0.039,0.077,0.042,0.041,0.04,0.04,0.043
265,0.002,0.039,0.055,0.038,0.088,0.038,0.039,0.076,0.041,0.041,0.04,0.04,0.043
266,0.002,0.039,0.055,0.037,0.087,0.038,0.038,0.076,0.041,0.041,0.04,0.039,0.043
267,0.002,0.038,0.054,0.037,0.086,0.038,0.038,0.075,0.04,0.04,0.039,0.039,0.042
268,0.002,0.038,0.054,0.037,0.085,0.037,0.037,0.074,0.04,0.039,0.038,0.038,0.041
269,0.001,0.037,0.053,0.036,0.084,0.036,0.036,0.073,0.039,0.039,0.038,0.038,0.041
270,0.002,0.036,0.053,0.035,0.083,0.036,0.036,0.072,0.039,0.038,0.037,0.037,0.04
271,0.001,0.036,0.052,0.035,0.082,0.035,0.035,0.071,0.038,0.037,0.037,0.036,0.04
272,0.001,0.035,0.052,0.034,0.081,0.035,0.035,0.07,0.038,0.037,0.036,0.036,0.039
273,0.002,0.035,0.051,0.033,0.08,0.034,0.034,0.07,0.037,0.036,0.035,0.035,0.039
274,0.002,0.034,0.051,0.033,0.079,0.033,0.033,0.068,0.036,0.036,0.035,0.035,0.038
275,0.002,0.033,0.05,0.032,0.078,0.033,0.033,0.068,0.036,0.035,0.034,0.034,0.037
276,0.001,0.032,0.049,0.031,0.077,0.032,0.032,0.066,0.035,0.034,0.033,0.033,0.037
277,0.001,0.032,0.049,0.031,0.076,0.031,0.031,0.065,0.035,0.033,0.032,0.033,0.036
278,0.001,0.031,0.048,0.03,0.075,0.03,0.03,0.064,0.034,0.033,0.032,0.032,0.035
279,0.001,0.03,0.048,0.029,0.074,0.03,0.03,0.063,0.033,0.032,0.031,0.031,0.034
280,0.001,0.029,0.047,0.029,0.073,0.029,0.029,0.062,0.033,0.031,0.03,0.031,0.034
281,0.001,0.029,0.046,0.028,0.072,0.028,0.028,0.061,0.032,0.031,0.03,0.03,0.034
282,0.001,0.028,0.046,0.027,0.071,0.028,0.028,0.06,0.031,0.03,0.029,0.029,0.033
283,0.001,0.027,0.045,0.026,0.07,0.027,0.027,0.059,0.031,0.029,0.028,0.028,0.032
284,0.001,0.027,0.045,0.026,0.068,0.026,0.026,0.058,0.03,0.028,0.028,0.028,0.032
285,0.001,0.026,0.044,0.025,0.067,0.026,0.026,0.057,0.03,0.028,0.027,0.027,0.031
286,0.002,0.025,0.044,0.025,0.066,0.025,0.025,0.056,0.029,0.027,0.026,0.026,0.03
287,0.001,0.025,0.043,0.024,0.065,0.025,0.024,0.055,0.029,0.026,0.026,0.026,0.03
288,0.001,0.024,0.042,0.023,0.064,0.024,0.024,0.054,0.028,0.026,0.025,0.025,0.029
289,0.001,0.024,0.042,0.023,0.063,0.023,0.023,0.053,0.027,0.025,0.024,0.024,0.029
290,0.001,0.023,0.041,0.022,0.062,0.022,0.022,0.052,0.027,0.025,0.024,0.024,0.028
291,0.001,0.022,0.041,0.021,0.061,0.022,0.022,0.051,0.026,0.024,0.023,0.023,0.028
292,0.001,0.022,0.04,0.021,0.06,0.021,0.021,0.05,0.026,0.023,0.022,0.023,0.027
293,0.001,0.021,0.039,0.02,0.059,0.021,0.021,0.049,0.025,0.023,0.022,0.022,0.026
294,0.001,0.02,0.039,0.02,0.058,0.02,0.02,0.048,0.025,0.022,0.021,0.022,0.026
295,0.001,0.02,0.038,0.019,0.057,0.02,0.019,0.047,0.024,0.022,0.021,0.021,0.025
296,0.001,0.019,0.038,0.019,0.056,0.019,0.019,0.046,0.024,0.021,0.02,0.021,0.025
297,0.001,0.019,0.038,0.018,0.056,0.019,0.019,0.046,0.023,0.021,0.02,0.02,0.025
298,0.001,0.018,0.037,0.018,0.055,0.018,0.018,0.045,0.023,0.02,0.019,0.02,0.024
299,0.001,0.018,0.036,0.017,0.054,0.018,0.018,0.044,0.022,0.02,0.019,0.019,0.023
300,0.001,0.018,0.036,0.017,0.053,0.017,0.017,0.043,0.022,0.019,0.018,0.019,0.023
301,0.001,0.017,0.035,0.017,0.052,0.017,0.017,0.042,0.022,0.019,0.018,0.018,0.023
302,0.001,0.017,0.035,0.016,0.052,0.017,0.016,0.041,0.021,0.018,0.018,0.018,0.022
303,0.001,0.016,0.034,0.016,0.05,0.016,0.016,0.041,0.021,0.018,0.017,0.017,0.022
304,0.001,0.016,0.034,0.015,0.05,0.016,0.015,0.04,0.02,0.018,0.017,0.017,0.021
305,0.001,0.016,0.034,0.015,0.049,0.015,0.015,0.039,0.02,0.017,0.017,0.017,0.021
306,0.001,0.015,0.033,0.015,0.048,0.015,0.015,0.038,0.019,0.017,0.016,0.016,0.021
307,0.001,0.015,0.032,0.014,0.047,0.015,0.014,0.037,0.019,0.016,0.016,0.016,0.02
308,0.001,0.014,0.032,0.014,0.047,0.014,0.014,0.037,0.019,0.016,0.016,0.015,0.02
309,0.001,0.014,0.031,0.014,0.046,0.014,0.014,0.036,0.018,0.015,0.015,0.015,0.02
310,0.001,0.014,0.031,0.013,0.045,0.014,0.013,0.036,0.018,0.015,0.015,0.015,0.019
311,0.001,0.014,0.031,0.013,0.045,0.014,0.013,0.035,0.018,0.015,0.015,0.014,0.019
312,0.001,0.013,0.03,0.013,0.044,0.013,0.013,0.034,0.018,0.015,0.014,0.014,0.019
313,0.001,0.013,0.03,0.012,0.043,0.013,0.012,0.034,0.017,0.014,0.014,0.014,0.018
314,0.001,0.013,0.029,0.012,0.043,0.013,0.012,0.033,0.017,0.014,0.014,0.014,0.018
315,0.001,0.012,0.029,0.012,0.043,0.012,0.012,0.033,0.016,0.014,0.014,0.013,0.018
316,0.001,0.012,0.029,0.012,0.042,0.012,0.012,0.032,0.016,0.014,0.013,0.013,0.017
317,0.001,0.012,0.028,0.012,0.042,0.012,0.011,0.032,0.016,0.013,0.013,0.013,0.017
318,0.001,0.012,0.028,0.011,0.041,0.012,0.011,0.031,0.016,0.013,0.013,0.013,0.017
319,0.001,0.012,0.027,0.011,0.04,0.011,0.011,0.031,0.015,0.013,0.013,0.012,0.016
320,0.001,0.011,0.027,0.011,0.04,0.011,0.011,0.03,0.015,0.013,0.012,0.012,0.016
321,0.001,0.011,0.027,0.011,0.04,0.011,0.011,0.03,0.015,0.013,0.012,0.012,0.016
322,0.001,0.011,0.026,0.01,0.039,0.011,0.01,0.03,0.014,0.012,0.012,0.012,0.016
323,0.001,0.011,0.026,0.01,0.039,0.01,0.01,0.029,0.014,0.012,0.012,0.012,0.016
324,0.001,0.011,0.026,0.01,0.038,0.011,0.01,0.029,0.014,0.012,0.012,0.012,0.015
325,0.001,0.011,0.026,0.01,0.038,0.01,0.01,0.029,0.014,0.012,0.012,0.011,0.015
326,0.001,0.01,0.025,0.01,0.038,0.01,0.01,0.028,0.014,0.011,0.012,0.011,0.015
327,0.001,0.01,0.025,0.01,0.037,0.01,0.01,0.028,0.013,0.011,0.011,0.011,0.015
328,0.001,0.01,0.024,0.01,0.037,0.01,0.009,0.027,0.013,0.011,0.011,0.011,0.014
329,0.001,0.01,0.024,0.009,0.037,0.01,0.009,0.027,0.013,0.011,0.011,0.011,0.014
330,0.001,0.01,0.024,0.009,0.036,0.009,0.009,0.027,0.013,0.011,0.011,0.011,0.014
331,0.001,0.01,0.024,0.009,0.036,0.009,0.009,0.026,0.013,0.011,0.011,0.01,0.014
332,0.001,0.009,0.023,0.009,0.036,0.009,0.009,0.026,0.013,0.01,0.01,0.01,0.014
333,0.001,0.009,0.023,0.009,0.035,0.009,0.009,0.025,0.013,0.01,0.01,0.01,0.014
334,0.001,0.009,0.023,0.009,0.035,0.009,0.008,0.025,0.012,0.01,0.01,0.01,0.013
335,0.001,0.009,0.022,0.009,0.034,0.009,0.009,0.025,0.012,0.01,0.01,0.01,0.013
336,0.001,0.009,0.022,0.009,0.034,0.008,0.008,0.025,0.012,0.01,0.01,0.009,0.013
337,0.001,0.009,0.022,0.009,0.034,0.009,0.008,0.024,0.012,0.01,0.01,0.009,0.013
338,0.001,0.009,0.022,0.008,0.033,0.009,0.008,0.024,0.012,0.01,0.01,0.009,0.013
339,0.001,0.009,0.021,0.008,0.033,0.009,0.008,0.024,0.012,0.01,0.01,0.009,0.013
340,0.003,0.01,0.023,0.01,0.034,0.01,0.009,0.025,0.013,0.011,0.011,0.011,0.014
341,0.001,0.009,0.021,0.008,0.032,0.008,0.008,0.023,0.012,0.01,0.009,0.009,0.012
342,0.001,0.008,0.021,0.008,0.032,0.008,0.008,0.023,0.011,0.009,0.009,0.009,0.012
343,0.001,0.008,0.02,0.008,0.031,0.008,0.008,0.023,0.011,0.009,0.009,0.009,0.012
344,0.001,0.008,0.02,0.008,0.031,0.008,0.007,0.022,0.011,0.009,0.009,0.009,0.012
345,0.001,0.008,0.02,0.007,0.03,0.008,0.007,0.022,0.011,0.009,0.009,0.009,0.011
346,0.001,0.008,0.019,0.007,0.03,0.007,0.007,0.021,0.01,0.009,0.009,0.009,0.011
347,0,0.007,0.019,0.007,0.03,0.007,0.006,0.021,0.01,0.009,0.008,0.008,0.011
348,0,0.007,0.019,0.007,0.029,0.007,0.007,0.021,0.01,0.008,0.008,0.008,0.011
349,0.001,0.007,0.019,0.007,0.029,0.007,0.007,0.021,0.01,0.008,0.008,0.008,0.011
350,0.001,0.007,0.018,0.007,0.029,0.007,0.006,0.02,0.01,0.008,0.009,0.008,0.011
351,0.001,0.007,0.018,0.007,0.028,0.007,0.006,0.02,0.01,0.008,0.008,0.008,0.011
352,0.001,0.007,0.018,0.007,0.028,0.007,0.006,0.02,0.01,0.008,0.008,0.007,0.01
353,0.001,0.007,0.018,0.006,0.028,0.007,0.006,0.02,0.009,0.008,0.008,0.007,0.01
354,0.001,0.007,0.017,0.006,0.027,0.007,0.006,0.019,0.009,0.008,0.008,0.007,0.01
355,0.001,0.007,0.017,0.006,0.027,0.007,0.006,0.019,0.009,0.008,0.008,0.007,0.01
356,0.001,0.007,0.017,0.006,0.027,0.006,0.006,0.019,0.009,0.008,0.008,0.007,0.01
357,0.001,0.006,0.017,0.006,0.027,0.007,0.006,0.019,0.009,0.008,0.008,0.007,0.01
358,0.001,0.006,0.016,0.006,0.026,0.006,0.006,0.018,0.008,0.008,0.008,0.007,0.009
359,0.001,0.006,0.016,0.006,0.026,0.006,0.006,0.018,0.008,0.008,0.007,0.007,0.009
360,0,0.006,0.016,0.006,0.026,0.006,0.005,0.017,0.008,0.007,0.007,0.007,0.009
361,0.001,0.006,0.016,0.006,0.025,0.006,0.005,0.017,0.008,0.007,0.007,0.007,0.009
362,0,0.006,0.016,0.006,0.025,0.006,0.005,0.017,0.008,0.007,0.007,0.007,0.009
363,0.001,0.006,0.016,0.006,0.025,0.006,0.005,0.017,0.008,0.007,0.007,0.007,0.009
364,0.001,0.006,0.015,0.005,0.025,0.006,0.005,0.016,0.008,0.007,0.007,0.006,0.008
365,0.001,0.006,0.015,0.005,0.025,0.006,0.005,0.016,0.008,0.007,0.007,0.006,0.008
366,0.001,0.006,0.015,0.005,0.024,0.005,0.005,0.016,0.008,0.007,0.007,0.006,0.008
367,0,0.005,0.014,0.005,0.024,0.005,0.005,0.016,0.007,0.006,0.007,0.006,0.008
368,0,0.005,0.014,0.005,0.024,0.005,0.005,0.016,0.007,0.007,0.006,0.006,0.008
369,0,0.005,0.014,0.005,0.023,0.005,0.004,0.015,0.007,0.006,0.006,0.006,0.008
370,0,0.005,0.014,0.005,0.023,0.005,0.005,0.015,0.007,0.007,0.006,0.006,0.008
371,0.001,0.005,0.014,0.005,0.023,0.005,0.004,0.015,0.007,0.007,0.006,0.006,0.008
372,0.001,0.005,0.014,0.005,0.023,0.005,0.004,0.015,0.007,0.007,0.006,0.006,0.008
373,0.001,0.005,0.013,0.005,0.023,0.005,0.004,0.014,0.007,0.006,0.006,0.006,0.008
374,0,0.005,0.013,0.004,0.022,0.005,0.004,0.014,0.007,0.006,0.006,0.005,0.007
375,0.001,0.005,0.013,0.004,0.022,0.005,0.004,0.014,0.007,0.006,0.006,0.005,0.007
376,0.001,0.005,0.013,0.004,0.022,0.005,0.004,0.014,0.007,0.006,0.006,0.005,0.007
377,0.001,0.005,0.013,0.004,0.022,0.005,0.004,0.014,0.006,0.006,0.006,0.005,0.007
378,0.001,0.005,0.013,0.004,0.022,0.005,0.004,0.014,0.006,0.006,0.006,0.005,0.007
379,0.001,0.005,0.013,0.004,0.021,0.005,0.004,0.014,0.006,0.006,0.006,0.005,0.007
380,0.001,0.005,0.012,0.004,0.021,0.004,0.004,0.013,0.006,0.006,0.006,0.005,0.007
381,0.001,0.004,0.012,0.004,0.021,0.004,0.004,0.013,0.006,0.006,0.006,0.005,0.007
382,0.001,0.005,0.012,0.004,0.021,0.004,0.004,0.013,0.006,0.006,0.006,0.005,0.007
383,0.001,0.005,0.012,0.004,0.02,0.004,0.004,0.013,0.006,0.006,0.006,0.005,0.007
384,0.001,0.004,0.012,0.004,0.02,0.004,0.004,0.013,0.006,0.006,0.006,0.005,0.007
385,0.001,0.004,0.012,0.004,0.02,0.004,0.004,0.012,0.006,0.006,0.006,0.005,0.007
386,0.001,0.004,0.012,0.004,0.02,0.004,0.004,0.012,0.006,0.006,0.006,0.005,0.006
387,0,0.004,0.011,0.004,0.02,0.004,0.004,0.012,0.006,0.005,0.005,0.005,0.006
388,0.001,0.004,0.011,0.004,0.019,0.004,0.003,0.012,0.006,0.005,0.005,0.005,0.006
389,0.001,0.004,0.011,0.004,0.019,0.004,0.003,0.012,0.006,0.005,0.005,0.005,0.006
390,0.001,0.004,0.011,0.004,0.019,0.004,0.003,0.011,0.005,0.005,0.005,0.005,0.006
391,0.001,0.004,0.011,0.004,0.019,0.004,0.003,0.011,0.005,0.005,0.005,0.004,0.006
392,0.001,0.004,0.011,0.004,0.019,0.004,0.003,0.011,0.005,0.005,0.005,0.004,0.006
393,0,0.004,0.01,0.003,0.018,0.004,0.003,0.011,0.005,0.005,0.005,0.004,0.006
394,0.001,0.004,0.01,0.004,0.018,0.004,0.003,0.011,0.005,0.005,0.005,0.004,0.006
395,0,0.004,0.01,0.004,0.018,0.004,0.003,0.011,0.005,0.005,0.005,0.004,0.006
396,0,0.004,0.01,0.003,0.018,0.004,0.003,0.011,0.005,0.005,0.005,0.004,0.006
397,0,0.004,0.01,0.003,0.018,0.004,0.003,0.01,0.005,0.005,0.005,0.004,0.006
398,0,0.004,0.01,0.003,0.018,0.004,0.003,0.01,0.005,0.005,0.005,0.004,0.006
399,0,0.004,0.01,0.003,0.017,0.004,0.003,0.01,0.005,0.005,0.005,0.004,0.006
400,0,0.004,0.01,0.003,0.017,0.004,0.003,0.01,0.005,0.005,0.005,0.004,0.005
401,0,0.003,0.009,0.003,0.017,0.003,0.003,0.01,0.005,0.005,0.004,0.004,0.005
402,0,0.004,0.009,0.003,0.017,0.003,0.003,0.01,0.005,0.005,0.005,0.004,0.005
403,0,0.003,0.009,0.003,0.017,0.003,0.003,0.01,0.004,0.005,0.005,0.004,0.005
404,0,0.003,0.009,0.003,0.017,0.003,0.003,0.009,0.005,0.005,0.005,0.004,0.005
405,0,0.003,0.009,0.003,0.016,0.003,0.003,0.009,0.004,0.004,0.004,0.004,0.005
406,0,0.003,0.009,0.003,0.016,0.003,0.003,0.009,0.004,0.004,0.004,0.004,0.005
407,0,0.003,0.009,0.003,0.016,0.003,0.003,0.009,0.004,0.004,0.004,0.004,0.005
408,0,0.003,0.009,0.003,0.016,0.003,0.003,0.009,0.004,0.004,0.004,0.004,0.005
409,0,0.003,0.009,0.003,0.016,0.003,0.002,0.009,0.004,0.004,0.004,0.003,0.005
410,0,0.003,0.009,0.003,0.016,0.003,0.002,0.009,0.004,0.004,0.004,0.004,0.005
411,0,0.003,0.008,0.003,0.016,0.003,0.003,0.009,0.004,0.004,0.004,0.003,0.005
412,0.001,0.003,0.008,0.003,0.016,0.003,0.003,0.009,0.004,0.004,0.004,0.004,0.005
413,0,0.003,0.008,0.003,0.016,0.003,0.002,0.008,0.004,0.004,0.004,0.003,0.005
414,0.001,0.003,0.008,0.003,0.015,0.003,0.002,0.008,0.004,0.004,0.004,0.003,0.005
415,0.001,0.003,0.008,0.003,0.015,0.003,0.002,0.008,0.004,0.004,0.004,0.003,0.005
416,0.001,0.003,0.008,0.003,0.015,0.003,0.002,0.008,0.004,0.004,0.004,0.003,0.005
417,0,0.003,0.008,0.003,0.015,0.003,0.002,0.008,0.004,0.004,0.004,0.003,0.005
418,0,0.003,0.008,0.003,0.015,0.003,0.002,0.008,0.004,0.004,0.004,0.003,0.005
419,0,0.003,0.008,0.002,0.015,0.003,0.002,0.008,0.004,0.004,0.004,0.003,0.004
420,0,0.003,0.008,0.002,0.015,0.003,0.002,0.008,0.004,0.004,0.004,0.003,0.004
421,0,0.003,0.008,0.002,0.014,0.003,0.002,0.008,0.004,0.004,0.004,0.003,0.004
422,0,0.003,0.008,0.002,0.014,0.003,0.002,0.008,0.003,0.004,0.004,0.003,0.004
423,0,0.003,0.007,0.002,0.014,0.003,0.002,0.007,0.003,0.004,0.004,0.003,0.004
424,0,0.003,0.007,0.002,0.014,0.003,0.002,0.007,0.003,0.004,0.004,0.003,0.004
425,0,0.002,0.007,0.002,0.014,0.002,0.002,0.007,0.003,0.004,0.004,0.003,0.004
426,0,0.003,0.007,0.002,0.014,0.003,0.002,0.007,0.003,0.004,0.004,0.003,0.004
427,0,0.003,0.007,0.002,0.014,0.003,0.002,0.007,0.003,0.004,0.004,0.003,0.004
428,0,0.003,0.007,0.002,0.014,0.002,0.002,0.007,0.003,0.003,0.004,0.003,0.004
429,0,0.002,0.007,0.002,0.014,0.002,0.002,0.007,0.003,0.004,0.003,0.003,0.004
430,0,0.002,0.007,0.002,0.013,0.002,0.002,0.007,0.003,0.003,0.004,0.003,0.004
431,0,0.002,0.007,0.002,0.013,0.002,0.002,0.007,0.003,0.003,0.004,0.003,0.004
432,0,0.003,0.007,0.002,0.013,0.002,0.002,0.007,0.003,0.003,0.004,0.003,0.004
433,0,0.002,0.007,0.002,0.013,0.002,0.002,0.007,0.003,0.003,0.003,0.003,0.004
434,0,0.002,0.006,0.002,0.013,0.002,0.002,0.007,0.003,0.003,0.003,0.003,0.004
435,0,0.002,0.006,0.002,0.013,0.002,0.002,0.006,0.003,0.003,0.003,0.003,0.004
436,0,0.002,0.006,0.002,0.013,0.002,0.002,0.007,0.003,0.003,0.003,0.003,0.004
437,0,0.002,0.006,0.002,0.013,0.002,0.002,0.006,0.003,0.003,0.003,0.003,0.004
438,0,0.002,0.006,0.002,0.013,0.002,0.002,0.006,0.003,0.003,0.003,0.003,0.004
439,0,0.002,0.006,0.002,0.013,0.002,0.002,0.006,0.003,0.003,0.003,0.002,0.004
440,0,0.002,0.006,0.002,0.013,0.002,0.002,0.006,0.003,0.003,0.003,0.002,0.004
441,0,0.002,0.006,0.002,0.013,0.002,0.002,0.006,0.003,0.003,0.003,0.003,0.004
442,0,0.002,0.006,0.002,0.012,0.002,0.002,0.006,0.003,0.003,0.003,0.003,0.004
443,0,0.002,0.006,0.002,0.012,0.002,0.002,0.006,0.003,0.003,0.003,0.002,0.004
444,0,0.002,0.006,0.002,0.012,0.002,0.001,0.006,0.003,0.003,0.003,0.002,0.003
445,0,0.002,0.006,0.002,0.012,0.002,0.001,0.006,0.003,0.003,0.003,0.002,0.003
446,0,0.002,0.006,0.002,0.012,0.002,0.002,0.006,0.003,0.003,0.003,0.002,0.003
447,0,0.002,0.006,0.002,0.012,0.002,0.002,0.006,0.003,0.003,0.003,0.002,0.003
448,0,0.002,0.006,0.002,0.012,0.002,0.001,0.006,0.003,0.003,0.003,0.002,0.003
449,0,0.002,0.006,0.002,0.012,0.002,0.001,0.006,0.003,0.003,0.003,0.002,0.003
450,0,0.002,0.006,0.002,0.012,0.002,0.002,0.006,0.003,0.003,0.003,0.002,0.003
451,0,0.002,0.006,0.002,0.012,0.002,0.001,0.006,0.003,0.003,0.003,0.002,0.003
452,0,0.002,0.005,0.002,0.012,0.002,0.001,0.005,0.003,0.003,0.003,0.002,0.003
453,0,0.002,0.005,0.002,0.012,0.002,0.001,0.005,0.003,0.003,0.003,0.002,0.003
454,0,0.002,0.005,0.002,0.012,0.002,0.002,0.006,0.003,0.003,0.003,0.002,0.003
455,0,0.002,0.005,0.002,0.012,0.002,0.001,0.005,0.003,0.003,0.003,0.002,0.003
456,0,0.002,0.005,0.002,0.012,0.002,0.001,0.005,0.003,0.003,0.003,0.002,0.003
457,0,0.002,0.005,0.002,0.012,0.002,0.001,0.005,0.003,0.003,0.003,0.002,0.003
458,0,0.002,0.005,0.002,0.011,0.002,0.001,0.005,0.002,0.003,0.003,0.002,0.003
459,0,0.002,0.005,0.002,0.011,0.002,0.001,0.005,0.002,0.003,0.003,0.002,0.003
460,0,0.002,0.005,0.002,0.011,0.002,0.001,0.005,0.003,0.003,0.003,0.002,0.003
461,0,0.002,0.005,0.002,0.011,0.002,0.001,0.005,0.002,0.003,0.003,0.002,0.003
462,0,0.002,0.005,0.002,0.011,0.002,0.001,0.005,0.002,0.003,0.003,0.002,0.003
463,0,0.002,0.005,0.002,0.011,0.002,0.001,0.005,0.002,0.003,0.003,0.002,0.003
464,0,0.002,0.005,0.002,0.011,0.002,0.001,0.005,0.002,0.003,0.003,0.002,0.003
465,0,0.002,0.005,0.002,0.011,0.002,0.001,0.005,0.002,0.003,0.003,0.002,0.003
466,0,0.002,0.005,0.002,0.011,0.002,0.001,0.005,0.002,0.003,0.003,0.002,0.003
467,0,0.002,0.005,0.002,0.011,0.002,0.001,0.005,0.002,0.003,0.003,0.002,0.003
468,0,0.002,0.005,0.002,0.011,0.002,0.001,0.005,0.002,0.003,0.003,0.002,0.003
469,0,0.002,0.005,0.002,0.011,0.002,0.001,0.005,0.002,0.003,0.003,0.002,0.003
470,0,0.002,0.005,0.002,0.011,0.002,0.001,0.005,0.002,0.003,0.003,0.002,0.003
471,0,0.002,0.005,0.002,0.011,0.002,0.001,0.005,0.002,0.003,0.003,0.002,0.003
472,0,0.002,0.005,0.001,0.011,0.002,0.001,0.005,0.002,0.003,0.003,0.002,0.003
473,0,0.002,0.005,0.002,0.011,0.002,0.001,0.005,0.002,0.003,0.003,0.002,0.003
474,0,0.002,0.005,0.002,0.011,0.002,0.001,0.005,0.002,0.003,0.003,0.002,0.003
475,0,0.002,0.005,0.001,0.011,0.002,0.001,0.005,0.002,0.003,0.003,0.002,0.003
476,0,0.002,0.005,0.001,0.01,0.002,0.001,0.005,0.002,0.003,0.003,0.002,0.003
477,0,0.002,0.004,0.001,0.01,0.002,0.001,0.005,0.002,0.003,0.003,0.002,0.003
478,0,0.002,0.004,0.001,0.01,0.002,0.001,0.005,0.002,0.003,0.003,0.002,0.003
479,0,0.002,0.004,0.001,0.01,0.002,0.001,0.004,0.002,0.003,0.003,0.002,0.003
480,0,0.002,0.005,0.001,0.01,0.002,0.001,0.004,0.002,0.003,0.003,0.002,0.003
481,0,0.002,0.004,0.001,0.01,0.002,0.001,0.004,0.002,0.003,0.003,0.002,0.003
482,0,0.002,0.004,0.001,0.01,0.002,0.001,0.004,0.002,0.003,0.003,0.002,0.003
483,0,0.002,0.004,0.001,0.01,0.002,0.001,0.004,0.002,0.003,0.003,0.002,0.003
484,0,0.002,0.004,0.001,0.01,0.002,0.001,0.004,0.002,0.003,0.003,0.002,0.003
485,0,0.002,0.004,0.001,0.01,0.002,0.001,0.004,0.002,0.003,0.003,0.002,0.003
486,0,0.002,0.004,0.001,0.01,0.002,0.001,0.004,0.002,0.003,0.003,0.002,0.003
487,0,0.002,0.004,0.001,0.01,0.002,0.001,0.004,0.002,0.003,0.003,0.002,0.003
488,0,0.002,0.004,0.001,0.01,0.002,0.001,0.004,0.002,0.002,0.003,0.002,0.003
489,0,0.002,0.004,0.001,0.01,0.002,0.001,0.004,0.002,0.002,0.003,0.002,0.003
490,0,0.002,0.004,0.001,0.01,0.002,0.001,0.004,0.002,0.002,0.003,0.002,0.003
491,0,0.002,0.004,0.001,0.01,0.001,0.001,0.004,0.002,0.002,0.003,0.002,0.002
492,0,0.002,0.004,0.001,0.01,0.002,0.001,0.004,0.002,0.002,0.003,0.002,0.003
493,0,0.002,0.004,0.001,0.01,0.001,0.001,0.004,0.002,0.002,0.003,0.002,0.002
494,0,0.002,0.004,0.001,0.01,0.001,0.001,0.004,0.002,0.002,0.003,0.002,0.002
495,0,0.002,0.004,0.001,0.01,0.001,0.001,0.004,0.002,0.002,0.003,0.002,0.002
496,0,0.002,0.004,0.001,0.009,0.002,0.001,0.004,0.002,0.002,0.003,0.002,0.002
497,0,0.002,0.004,0.001,0.009,0.001,0.001,0.004,0.002,0.002,0.003,0.002,0.002
498,0,0.002,0.004,0.001,0.009,0.002,0.001,0.004,0.002,0.002,0.003,0.002,0.002
499,0,0.002,0.004,0.001,0.009,0.001,0.001,0.004,0.002,0.002,0.002,0.002,0.002
500,0,0.002,0.004,0.001,0.009,0.001,0.001,0.004,0.002,0.002,0.002,0.002,0.002
501,0,0.002,0.004,0.001,0.009,0.001,0.001,0.004,0.002,0.002,0.003,0.002,0.002
502,0,0.002,0.004,0.001,0.009,0.001,0.001,0.004,0.002,0.002,0.002,0.002,0.002
503,0,0.002,0.004,0.001,0.009,0.001,0.001,0.004,0.002,0.002,0.002,0.002,0.002
504,0,0.002,0.004,0.001,0.009,0.001,0.001,0.004,0.002,0.002,0.002,0.002,0.002
505,0,0.002,0.004,0.001,0.009,0.002,0.001,0.004,0.002,0.002,0.003,0.002,0.002
506,0,0.001,0.004,0.001,0.009,0.001,0.001,0.004,0.002,0.002,0.002,0.002,0.002
507,0,0.002,0.004,0.001,0.009,0.001,0.001,0.004,0.002,0.002,0.003,0.002,0.002
508,0,0.001,0.004,0.001,0.009,0.001,0.001,0.004,0.002,0.002,0.002,0.002,0.002
509,0,0.001,0.004,0.001,0.009,0.001,0.001,0.004,0.002,0.002,0.002,0.001,0.002
510,0,0.001,0.004,0.001,0.009,0.001,0.001,0.004,0.002,0.002,0.002,0.002,0.002
511,0,0.001,0.004,0.001,0.009,0.001,0.001,0.004,0.002,0.002,0.002,0.001,0.002
512,0,0.001,0.004,0.001,0.009,0.001,0.001,0.004,0.002,0.002,0.002,0.001,0.002
513,0,0.001,0.004,0.001,0.009,0.001,0.001,0.003,0.002,0.002,0.002,0.001,0.002
514,0,0.001,0.004,0.001,0.009,0.001,0.001,0.003,0.002,0.002,0.002,0.001,0.002
515,0,0.001,0.004,0.001,0.009,0.001,0.001,0.003,0.002,0.002,0.002,0.001,0.002
516,0,0.001,0.004,0.001,0.009,0.001,0.001,0.003,0.002,0.002,0.002,0.001,0.002
517,0,0.001,0.004,0.001,0.009,0.001,0.001,0.003,0.001,0.002,0.002,0.001,0.002
518,0,0.001,0.003,0.001,0.009,0.001,0.001,0.003,0.001,0.002,0.002,0.001,0.002
519,0,0.001,0.003,0.001,0.009,0.001,0.001,0.003,0.001,0.002,0.002,0.001,0.002
520,0,0.001,0.003,0.001,0.009,0.001,0.001,0.003,0.002,0.002,0.002,0.001,0.002
521,0,0.001,0.003,0.001,0.008,0.001,0.001,0.003,0.001,0.002,0.002,0.001,0.002
522,0,0.001,0.003,0.001,0.008,0.001,0.001,0.003,0.001,0.002,0.002,0.001,0.002
523,0,0.001,0.003,0.001,0.008,0.001,0.001,0.003,0.001,0.002,0.002,0.001,0.002
524,0,0.001,0.003,0.001,0.008,0.001,0.001,0.003,0.001,0.002,0.002,0.001,0.002
525,0,0.001,0.003,0.001,0.008,0.001,0.001,0.003,0.001,0.002,0.002,0.001,0.002
526,0,0.001,0.003,0.001,0.008,0.001,0.001,0.003,0.001,0.002,0.002,0.001,0.002
527,0,0.001,0.003,0.001,0.008,0.001,0.001,0.003,0.001,0.002,0.002,0.001,0.002
528,0,0.001,0.003,0.001,0.008,0.001,0.001,0.003,0.001,0.002,0.002,0.001,0.002
529,0,0.001,0.003,0.001,0.008,0.001,0.001,0.003,0.001,0.002,0.002,0.001,0.002
530,0,0.001,0.003,0.001,0.008,0.001,0.001,0.003,0.001,0.002,0.002,0.001,0.002
531,0,0.001,0.003,0.001,0.008,0.001,0.001,0.003,0.001,0.002,0.002,0.001,0.002
532,0,0.001,0.003,0.001,0.008,0.001,0.001,0.003,0.001,0.002,0.002,0.001,0.002
533,0,0.001,0.003,0.001,0.008,0.001,0,0.003,0.001,0.002,0.002,0.001,0.002
534,0,0.001,0.003,0.001,0.008,0.001,0.001,0.003,0.001,0.002,0.002,0.001,0.002
535,0,0.001,0.003,0.001,0.008,0.001,0.001,0.003,0.001,0.002,0.002,0.001,0.002
536,0.001,0.002,0.004,0.002,0.009,0.002,0.002,0.004,0.002,0.003,0.003,0.002,0.003
537,0,0.001,0.003,0.001,0.008,0.001,0.001,0.003,0.001,0.002,0.002,0.001,0.002
538,0,0.001,0.003,0.001,0.008,0.001,0,0.003,0.001,0.002,0.002,0.001,0.002
539,0,0.001,0.003,0.001,0.008,0.001,0.001,0.003,0.001,0.002,0.002,0.001,0.002
540,0,0.001,0.003,0.001,0.008,0.001,0.001,0.003,0.001,0.002,0.002,0.001,0.002
541,0,0.001,0.003,0.001,0.008,0.001,0.001,0.003,0.001,0.002,0.002,0.001,0.002
542,0,0.001,0.003,0.001,0.008,0.001,0.001,0.003,0.001,0.002,0.002,0.001,0.002
543,0,0.001,0.003,0.001,0.008,0.001,0.001,0.003,0.001,0.002,0.002,0.001,0.002
544,0,0.001,0.003,0.001,0.008,0.001,0.001,0.003,0.001,0.002,0.002,0.001,0.002
545,0,0.001,0.003,0.001,0.008,0.001,0.001,0.003,0.001,0.002,0.002,0.001,0.002
546,0,0.001,0.003,0.001,0.008,0.001,0.001,0.003,0.001,0.002,0.002,0.001,0.002
547,0,0.001,0.003,0.001,0.008,0.001,0.001,0.003,0.001,0.002,0.002,0.001,0.002
548,0,0.001,0.003,0.001,0.008,0.001,0.001,0.003,0.001,0.002,0.002,0.001,0.002
549,0,0.001,0.003,0.001,0.008,0.001,0.001,0.003,0.001,0.002,0.002,0.001,0.002
550,0,0.001,0.003,0.001,0.008,0.001,0.001,0.003,0.001,0.002,0.002,0.001,0.002
551,0,0.001,0.003,0.001,0.008,0.001,0,0.003,0.001,0.002,0.002,0.001,0.002
552,0,0.001,0.003,0.001,0.008,0.001,0,0.003,0.001,0.002,0.002,0.001,0.002
553,0,0.001,0.003,0.001,0.008,0.001,0.001,0.003,0.001,0.002,0.002,0.001,0.002
554,0,0.001,0.003,0.001,0.008,0.001,0.001,0.003,0.001,0.002,0.002,0.001,0.002
555,0,0.001,0.003,0.001,0.008,0.001,0.001,0.003,0.001,0.002,0.002,0.001,0.002
556,0,0.001,0.003,0.001,0.008,0.001,0,0.003,0.001,0.002,0.002,0.001,0.002
557,0,0.001,0.003,0.001,0.008,0.001,0.001,0.003,0.001,0.002,0.002,0.001,0.002
558,0,0.001,0.003,0.001,0.008,0.001,0.001,0.003,0.001,0.002,0.002,0.001,0.002
559,0,0.001,0.003,0.001,0.008,0.001,0.001,0.003,0.001,0.002,0.002,0.001,0.002
560,0,0.001,0.003,0.001,0.008,0.001,0.001,0.003,0.001,0.002,0.002,0.001,0.002
561,0,0.001,0.003,0.001,0.008,0.001,0.001,0.003,0.001,0.002,0.002,0.001,0.002
562,0,0.001,0.003,0.001,0.007,0.001,0.001,0.003,0.001,0.002,0.002,0.001,0.002
563,0,0.001,0.003,0.001,0.007,0.001,0,0.003,0.001,0.002,0.002,0.001,0.002
564,0,0.001,0.003,0.001,0.007,0.001,0.001,0.003,0.001,0.002,0.002,0.001,0.002
565,0,0.001,0.003,0.001,0.007,0.001,0.001,0.003,0.001,0.002,0.002,0.001,0.002
566,0,0.001,0.003,0.001,0.007,0.001,0.001,0.003,0.001,0.002,0.002,0.001,0.002
567,0,0.001,0.003,0.001,0.007,0.001,0.001,0.003,0.001,0.002,0.002,0.001,0.002
568,0,0.001,0.003,0.001,0.007,0.001,0.001,0.003,0.001,0.002,0.002,0.001,0.002
569,0,0.001,0.003,0.001,0.007,0.001,0.001,0.003,0.001,0.002,0.002,0.001,0.002
570,0,0.001,0.003,0.001,0.007,0.001,0.001,0.003,0.001,0.002,0.002,0.001,0.002
571,0,0.001,0.003,0.001,0.007,0.001,0.001,0.003,0.001,0.002,0.002,0.001,0.002
572,0,0.001,0.003,0.001,0.007,0.001,0.001,0.003,0.001,0.002,0.002,0.001,0.002
573,0,0.001,0.003,0.001,0.007,0.001,0.001,0.003,0.001,0.002,0.002,0.001,0.002
574,0,0.001,0.003,0.001,0.007,0.001,0.001,0.003,0.001,0.002,0.002,0.001,0.002
575,0,0.001,0.003,0.001,0.007,0.001,0.001,0.003,0.001,0.002,0.002,0.001,0.002
576,0,0.001,0.003,0.001,0.007,0.001,0.001,0.003,0.001,0.002,0.002,0.001,0.002
577,0,0.001,0.003,0.001,0.007,0.001,0.001,0.003,0.001,0.002,0.002,0.001,0.002
578,0,0.001,0.003,0.001,0.007,0.001,0.001,0.003,0.001,0.002,0.002,0.001,0.002
579,0,0.001,0.003,0.001,0.007,0.001,0.001,0.003,0.001,0.002,0.002,0.001,0.002
580,0,0.001,0.003,0.001,0.007,0.001,0.001,0.003,0.001,0.002,0.002,0.001,0.002
581,0,0.001,0.003,0.001,0.007,0.001,0.001,0.003,0.001,0.002,0.002,0.001,0.002
582,0,0.001,0.003,0.001,0.007,0.001,0.001,0.003,0.001,0.002,0.002,0.001,0.002
583,0,0.001,0.003,0.001,0.007,0.001,0.001,0.003,0.001,0.002,0.002,0.001,0.002
584,0,0.001,0.003,0.001,0.007,0.001,0.001,0.003,0.001,0.002,0.002,0.001,0.002
585,0,0.001,0.003,0.001,0.007,0.001,0.001,0.003,0.001,0.002,0.002,0.001,0.002
586,0,0.001,0.003,0.001,0.007,0.001,0.001,0.003,0.001,0.002,0.002,0.001,0.002
587,0,0.001,0.003,0.001,0.007,0.001,0.001,0.003,0.001,0.002,0.002,0.001,0.002
588,0,0.001,0.003,0.001,0.007,0.001,0.001,0.003,0.001,0.002,0.002,0.001,0.002
589,0,0.001,0.003,0.001,0.007,0.001,0.001,0.002,0.001,0.002,0.002,0.001,0.002
590,0,0.001,0.003,0.001,0.007,0.001,0,0.002,0.001,0.002,0.002,0.001,0.002
591,0,0.001,0.003,0.001,0.007,0.001,0.001,0.002,0.001,0.002,0.002,0.001,0.002
592,0,0.001,0.003,0.001,0.007,0.001,0.001,0.002,0.001,0.002,0.002,0.001,0.002
593,0,0.001,0.003,0.001,0.007,0.001,0.001,0.003,0.001,0.002,0.002,0.001,0.002
594,0,0.001,0.003,0.001,0.007,0.001,0.001,0.002,0.001,0.002,0.002,0.001,0.002
595,0,0.001,0.003,0.001,0.007,0.001,0,0.002,0.001,0.002,0.002,0.001,0.001
596,0,0.001,0.003,0.001,0.007,0.001,0.001,0.002,0.001,0.002,0.002,0.001,0.002
597,0,0.001,0.003,0.001,0.007,0.001,0,0.002,0.001,0.002,0.002,0.001,0.002
598,0,0.001,0.003,0.001,0.007,0.001,0,0.002,0.001,0.002,0.002,0.001,0.001
599,0,0.001,0.003,0.001,0.007,0.001,0,0.002,0.001,0.002,0.002,0.001,0.001
600,0,0.001,0.003,0.001,0.007,0.001,0,0.002,0.001,0.002,0.002,0.001,0.001
601,0,0.001,0.003,0.001,0.007,0.001,0,0.002,0.001,0.002,0.002,0.001,0.001
602,0,0.001,0.003,0.001,0.007,0.001,0.001,0.002,0.001,0.002,0.002,0.001,0.001
603,0,0.001,0.003,0.001,0.007,0.001,0,0.002,0.001,0.002,0.002,0.001,0.001
604,0,0.001,0.002,0.001,0.007,0.001,0,0.002,0.001,0.002,0.002,0.001,0.001
605,0,0.001,0.002,0.001,0.007,0.001,0,0.002,0.001,0.002,0.002,0.001,0.001
606,0,0.001,0.002,0.001,0.007,0.001,0,0.002,0.001,0.002,0.002,0.001,0.001
607,0,0.001,0.002,0.001,0.007,0.001,0,0.002,0.001,0.002,0.002,0.001,0.001
608,0,0.001,0.002,0.001,0.007,0.001,0,0.002,0.001,0.001,0.002,0.001,0.001
609,0,0.001,0.002,0.001,0.007,0.001,0,0.002,0.001,0.001,0.002,0.001,0.001
610,0,0.001,0.002,0.001,0.007,0.001,0,0.002,0.001,0.002,0.002,0.001,0.001
611,0,0.001,0.002,0.001,0.007,0.001,0,0.002,0.001,0.002,0.002,0.001,0.001
612,0,0.001,0.002,0,0.007,0.001,0,0.002,0.001,0.002,0.002,0.001,0.001
613,0,0.001,0.002,0,0.007,0.001,0,0.002,0.001,0.001,0.002,0.001,0.001
614,0,0.001,0.002,0,0.007,0.001,0,0.002,0.001,0.001,0.002,0.001,0.001
615,0,0.001,0.002,0,0.006,0.001,0,0.002,0.001,0.001,0.002,0.001,0.001
616,0,0.001,0.002,0,0.006,0.001,0,0.002,0.001,0.001,0.002,0.001,0.001
617,0,0.001,0.002,0,0.006,0.001,0,0.002,0.001,0.001,0.002,0.001,0.001
618,0,0.001,0.002,0,0.006,0.001,0,0.002,0.001,0.001,0.002,0.001,0.001
619,0,0.001,0.002,0,0.006,0.001,0,0.002,0.001,0.001,0.002,0.001,0.001
620,0,0.001,0.002,0,0.006,0.001,0,0.002,0.001,0.001,0.002,0.001,0.001
621,0,0.001,0.002,0,0.006,0.001,0,0.002,0.001,0.001,0.002,0.001,0.001
622,0,0.001,0.002,0,0.006,0.001,0,0.002,0.001,0.001,0.002,0.001,0.001
623,0,0.001,0.002,0,0.006,0.001,0,0.002,0.001,0.001,0.002,0.001,0.001
624,0,0.001,0.002,0,0.006,0.001,0,0.002,0.001,0.001,0.002,0.001,0.001
625,0,0.001,0.002,0,0.006,0.001,0,0.002,0.001,0.001,0.002,0.001,0.001
626,0,0.001,0.002,0,0.006,0.001,0,0.002,0.001,0.001,0.002,0.001,0.001
627,0,0.001,0.002,0,0.006,0.001,0,0.002,0.001,0.001,0.002,0.001,0.001
628,0,0.001,0.002,0,0.006,0.001,0,0.002,0.001,0.001,0.002,0.001,0.001
629,0,0.001,0.002,0,0.006,0.001,0,0.002,0.001,0.001,0.002,0.001,0.001
630,0,0.001,0.002,0,0.006,0.001,0,0.002,0.001,0.001,0.002,0.001,0.001
631,0,0.001,0.002,0,0.006,0.001,0,0.002,0.001,0.001,0.002,0.001,0.001
632,0,0.001,0.002,0,0.006,0.001,0,0.002,0.001,0.001,0.002,0.001,0.001
633,0,0.001,0.002,0,0.006,0.001,0,0.002,0.001,0.001,0.002,0.001,0.001
634,0,0.001,0.002,0,0.006,0.001,0,0.002,0.001,0.001,0.002,0.001,0.001
635,0,0.001,0.002,0,0.006,0.001,0,0.002,0.001,0.001,0.002,0.001,0.001
636,0,0.001,0.002,0,0.006,0.001,0,0.002,0.001,0.001,0.002,0.001,0.001
637,0,0.001,0.002,0,0.006,0.001,0,0.002,0.001,0.001,0.002,0.001,0.001
638,0,0.001,0.002,0,0.006,0.001,0,0.002,0.001,0.001,0.002,0.001,0.001
639,0,0.001,0.002,0,0.006,0.001,0,0.002,0.001,0.001,0.002,0.001,0.001
640,0,0.001,0.002,0,0.006,0.001,0,0.002,0.001,0.001,0.002,0.001,0.001
641,0,0.001,0.002,0,0.006,0.001,0,0.002,0.001,0.001,0.002,0.001,0.001
642,0,0.001,0.002,0,0.006,0.001,0,0.002,0.001,0.001,0.002,0.001,0.001
643,0,0.001,0.002,0,0.006,0.001,0,0.002,0.001,0.001,0.002,0.001,0.001
644,0,0.001,0.002,0,0.006,0.001,0,0.002,0.001,0.001,0.002,0.001,0.001
645,0,0.001,0.002,0,0.006,0.001,0,0.002,0.001,0.001,0.002,0.001,0.001
646,0,0.001,0.002,0,0.006,0.001,0,0.002,0.001,0.001,0.002,0.001,0.001
647,0,0.001,0.002,0,0.006,0.001,0,0.002,0.001,0.001,0.002,0.001,0.001
648,0,0.001,0.002,0,0.006,0.001,0,0.002,0.001,0.001,0.002,0.001,0.001
649,0,0.001,0.002,0,0.006,0.001,0,0.002,0.001,0.001,0.002,0.001,0.001
650,0,0.001,0.002,0,0.006,0.001,0,0.002,0.001,0.001,0.002,0.001,0.001
651,0,0.001,0.002,0,0.006,0.001,0,0.002,0.001,0.001,0.002,0.001,0.001
652,0,0.001,0.002,0,0.006,0.001,0,0.002,0.001,0.001,0.002,0.001,0.001
653,0,0.001,0.002,0,0.006,0.001,0,0.002,0.001,0.001,0.002,0.001,0.001
654,0,0.001,0.002,0,0.006,0.001,0,0.002,0.001,0.001,0.002,0.001,0.001
655,0,0.001,0.002,0,0.006,0.001,0,0.002,0.001,0.001,0.002,0.001,0.001
656,0,0.001,0.002,0,0.006,0.001,0,0.002,0.001,0.001,0.002,0.001,0.001
657,0,0.001,0.002,0,0.006,0.001,0,0.002,0.001,0.001,0.002,0.001,0.001
658,0,0.001,0.002,0,0.006,0.001,0,0.002,0.001,0.001,0.002,0.001,0.001
659,0,0.001,0.002,0.001,0.006,0.001,0,0.002,0.001,0.001,0.002,0.001,0.001
660,0,0.001,0.002,0,0.006,0.001,0,0.002,0.001,0.001,0.002,0.001,0.001
661,0,0.001,0.002,0,0.006,0.001,0,0.002,0.001,0.001,0.002,0.001,0.001
662,0,0.001,0.002,0,0.006,0.001,0,0.002,0.001,0.001,0.002,0.001,0.001
663,0,0.001,0.002,0,0.006,0.001,0,0.002,0.001,0.001,0.002,0.001,0.001
664,0,0.001,0.002,0,0.006,0.001,0,0.002,0.001,0.001,0.002,0.001,0.001
665,0,0.001,0.002,0,0.006,0.001,0,0.002,0.001,0.001,0.002,0.001,0.001
666,0,0.001,0.002,0,0.006,0.001,0,0.002,0.001,0.001,0.002,0.001,0.001
667,0,0.001,0.002,0,0.006,0.001,0,0.002,0.001,0.001,0.002,0.001,0.001
668,0,0.001,0.002,0,0.006,0.001,0,0.002,0.001,0.001,0.002,0.001,0.001
669,0,0.001,0.002,0,0.006,0.001,0,0.002,0.001,0.001,0.002,0.001,0.001
670,0,0.001,0.002,0,0.006,0.001,0,0.002,0.001,0.001,0.002,0.001,0.001
671,0,0.001,0.002,0,0.006,0.001,0,0.002,0.001,0.001,0.002,0.001,0.001
672,0,0.001,0.002,0,0.006,0.001,0,0.002,0.001,0.001,0.002,0.001,0.001
673,0,0.001,0.002,0,0.006,0.001,0,0.002,0.001,0.001,0.002,0.001,0.001
674,0,0.001,0.002,0,0.006,0.001,0,0.002,0.001,0.001,0.002,0.001,0.001
675,0,0.001,0.002,0,0.006,0.001,0,0.002,0.001,0.001,0.002,0.001,0.001
676,0,0.001,0.002,0,0.006,0.001,0,0.002,0.001,0.001,0.002,0.001,0.001
677,0,0.001,0.002,0,0.006,0.001,0,0.002,0.001,0.001,0.002,0.001,0.001
678,0,0.001,0.002,0,0.006,0.001,0,0.002,0.001,0.001,0.002,0,0.001
679,0,0.001,0.002,0,0.006,0.001,0,0.002,0.001,0.001,0.002,0,0.001
680,0,0.001,0.002,0,0.006,0.001,0,0.002,0.001,0.001,0.002,0.001,0.001
681,0,0.001,0.002,0,0.006,0.001,0,0.002,0.001,0.001,0.002,0.001,0.001
682,0,0.001,0.002,0,0.006,0.001,0,0.002,0.001,0.001,0.002,0.001,0.001
683,0,0.001,0.002,0,0.006,0.001,0,0.002,0.001,0.001,0.002,0.001,0.001
684,0,0.001,0.002,0,0.006,0.001,0,0.002,0.001,0.001,0.002,0.001,0.001
685,0,0.001,0.002,0,0.006,0.001,0,0.002,0.001,0.001,0.002,0.001,0.001
686,0,0.001,0.002,0,0.006,0.001,0,0.002,0.001,0.001,0.002,0.001,0.001
687,0,0.001,0.002,0,0.006,0.001,0,0.002,0.001,0.001,0.002,0.001,0.001
688,0,0.001,0.002,0,0.006,0.001,0,0.002,0.001,0.001,0.002,0.001,0.001
689,0,0.001,0.002,0,0.006,0.001,0,0.002,0.001,0.001,0.002,0.001,0.001
690,0,0.001,0.002,0,0.006,0.001,0,0.002,0.001,0.001,0.002,0.001,0.001
691,0,0.001,0.002,0,0.006,0.001,0,0.002,0.001,0.001,0.002,0.001,0.001
692,0,0.001,0.002,0,0.006,0.001,0,0.002,0.001,0.001,0.002,0.001,0.001
693,0,0.001,0.002,0,0.006,0.001,0,0.002,0.001,0.001,0.002,0.001,0.001
694,0,0.001,0.002,0,0.006,0.001,0,0.002,0.001,0.001,0.002,0.001,0.001
695,0,0.001,0.002,0,0.006,0.001,0,0.002,0.001,0.001,0.002,0.001,0.001
696,0,0.001,0.002,0,0.006,0.001,0,0.002,0.001,0.001,0.002,0.001,0.001
697,0,0.001,0.002,0,0.006,0.001,0,0.002,0.001,0.001,0.002,0.001,0.001
698,0,0.001,0.002,0,0.006,0.001,0,0.002,0.001,0.001,0.002,0.001,0.001
699,0,0.001,0.002,0,0.006,0.001,0,0.002,0.001,0.001,0.002,0.001,0.001
700,0,0.001,0.002,0,0.006,0.001,0,0.002,0.001,0.001,0.002,0.001,0.001
701,0,0.001,0.002,0,0.006,0.001,0,0.002,0.001,0.001,0.002,0.001,0.001
702,0,0.001,0.002,0,0.006,0.001,0,0.002,0.001,0.001,0.002,0.001,0.001
703,0,0.001,0.002,0,0.006,0.001,0,0.002,0.001,0.001,0.002,0.001,0.001
704,0,0.001,0.002,0,0.006,0.001,0,0.002,0.001,0.001,0.002,0.001,0.001
705,0,0.001,0.002,0,0.006,0.001,0,0.002,0.001,0.001,0.002,0.001,0.001
706,0,0.001,0.002,0,0.006,0.001,0,0.002,0.001,0.001,0.002,0.001,0.001
707,0,0.001,0.002,0,0.006,0.001,0,0.002,0.001,0.001,0.002,0.001,0.001
708,0,0.001,0.002,0,0.006,0.001,0,0.002,0.001,0.001,0.002,0.001,0.001
709,0,0.001,0.002,0,0.006,0.001,0,0.002,0.001,0.001,0.002,0.001,0.001
710,0,0.001,0.002,0,0.006,0.001,0,0.002,0.001,0.001,0.002,0.001,0.001
711,0,0.001,0.002,0,0.006,0.001,0,0.002,0.001,0.001,0.002,0.001,0.001
712,0,0.001,0.001,0,0.006,0.001,0,0.001,0.001,0.001,0.001,0.001,0.001
713,0,0.001,0.001,0,0.006,0.001,0,0.001,0.001,0.001,0.002,0.001,0.001
714,0,0.001,0.002,0,0.006,0.001,0,0.002,0.001,0.001,0.002,0.001,0.001
715,0,0.001,0.001,0,0.006,0.001,0,0.002,0.001,0.001,0.002,0.001,0.001
716,0,0.001,0.002,0,0.006,0.001,0,0.002,0.001,0.001,0.002,0.001,0.001
717,0,0.001,0.002,0,0.006,0.001,0,0.002,0.001,0.001,0.002,0.001,0.001
718,0,0.001,0.002,0,0.006,0.001,0,0.002,0.001,0.001,0.002,0.001,0.001
719,0,0.001,0.001,0,0.006,0.001,0,0.002,0.001,0.001,0.002,0.001,0.001
720,0,0.001,0.001,0,0.005,0.001,0,0.001,0.001,0.001,0.001,0,0.001
721,0,0.001,0.001,0,0.005,0.001,0,0.002,0.001,0.001,0.002,0.001,0.001
722,0,0.001,0.001,0,0.005,0.001,0,0.002,0.001,0.001,0.002,0.001,0.001
723,0,0.001,0.001,0,0.006,0.001,0,0.002,0.001,0.001,0.002,0.001,0.001
724,0,0.001,0.001,0,0.005,0.001,0,0.002,0.001,0.001,0.002,0.001,0.001
725,0,0.001,0.001,0,0.005,0.001,0,0.002,0.001,0.001,0.002,0.001,0.001
726,0,0.001,0.001,0,0.005,0.001,0,0.002,0.001,0.001,0.002,0.001,0.001
727,0,0.001,0.001,0,0.006,0.001,0,0.002,0.001,0.001,0.002,0.001,0.001
728,0,0.001,0.001,0,0.005,0.001,0,0.002,0.001,0.001,0.002,0.001,0.001
729,0,0.001,0.001,0,0.005,0.001,0,0.001,0.001,0.001,0.001,0.001,0.001
730,0,0.001,0.001,0,0.005,0.001,0,0.001,0.001,0.001,0.001,0.001,0.001
731,0,0.001,0.001,0,0.005,0.001,0,0.001,0.001,0.001,0.001,0.001,0.001
732,0,0.001,0.001,0,0.005,0.001,0,0.002,0.001,0.001,0.002,0.001,0.001
733,0,0.001,0.001,0,0.005,0.001,0,0.002,0.001,0.001,0.002,0.001,0.001
734,0,0.001,0.001,0,0.005,0.001,0,0.002,0.001,0.001,0.001,0,0.001
735,0,0.001,0.001,0,0.005,0.001,0,0.001,0.001,0.001,0.001,0,0.001
736,0,0.001,0.001,0,0.005,0.001,0,0.001,0.001,0.001,0.002,0.001,0.001
737,0,0.001,0.001,0,0.005,0.001,0,0.001,0.001,0.001,0.002,0.001,0.001
738,0,0.001,0.001,0,0.005,0.001,0,0.001,0.001,0.001,0.001,0,0.001
739,0,0.001,0.001,0,0.005,0.001,0,0.002,0.001,0.001,0.001,0,0.001
740,0,0.001,0.001,0,0.005,0.001,0,0.002,0.001,0.001,0.002,0.001,0.001
741,0,0.001,0.001,0,0.005,0.001,0,0.002,0.001,0.001,0.002,0.001,0.001
742,0,0.001,0.002,0,0.005,0.001,0,0.002,0.001,0.001,0.002,0.001,0.001
743,0,0.001,0.001,0,0.005,0.001,0,0.002,0.001,0.001,0.002,0.001,0.001
744,0,0.001,0.001,0,0.005,0.001,0,0.002,0.001,0.001,0.001,0.001,0.001
745,0,0.001,0.001,0,0.005,0.001,0,0.002,0.001,0.001,0.001,0.001,0.001
746,0,0.001,0.001,0,0.005,0.001,0,0.002,0.001,0.001,0.002,0.001,0.001
747,0,0.001,0.001,0,0.005,0.001,0,0.001,0.001,0.001,0.001,0,0.001
748,0,0.001,0.001,0,0.005,0.001,0,0.001,0.001,0.001,0.001,0.001,0.001
749,0,0.001,0.001,0,0.005,0.001,0,0.002,0.001,0.001,0.001,0.001,0.001
750,0,0.001,0.001,0,0.005,0.001,0,0.002,0.001,0.001,0.001,0.001,0.001
751,0,0.001,0.001,0,0.005,0.001,0,0.002,0.001,0.001,0.001,0.001,0.001
752,0,0.001,0.002,0,0.005,0.001,0,0.002,0.001,0.001,0.002,0.001,0.001
753,0,0.001,0.002,0,0.005,0.001,0,0.002,0.001,0.001,0.002,0.001,0.001
754,0,0.001,0.001,0,0.005,0.001,0,0.002,0.001,0.001,0.001,0.001,0.001
755,0,0.001,0.001,0,0.005,0.001,0,0.002,0.001,0.001,0.002,0.001,0.001
756,0,0.001,0.001,0,0.005,0.001,0,0.002,0.001,0.001,0.002,0.001,0.001
757,0,0.001,0.001,0,0.005,0.001,0,0.002,0.001,0.001,0.002,0.001,0.001
758,0,0.001,0.001,0,0.005,0.001,0,0.002,0.001,0.001,0.002,0.001,0.001
759,0,0.001,0.002,0.001,0.006,0.001,0,0.002,0.001,0.001,0.002,0.001,0.001
760,0.001,0.002,0.003,0.001,0.006,0.002,0.001,0.003,0.002,0.002,0.003,0.002,0.002
761,0,0.001,0.002,0.001,0.005,0.001,0.001,0.002,0.001,0.001,0.002,0.001,0.001
762,0,0.001,0.002,0,0.005,0.001,0,0.001,0.001,0.001,0.002,0.001,0.001
763,0,0.001,0.001,0,0.005,0.001,0,0.001,0.001,0.001,0.002,0.001,0.001
764,0,0.001,0.001,0,0.005,0.001,0,0.001,0.001,0.001,0.002,0.001,0.001
765,0,0.001,0.001,0,0.005,0.001,0,0.001,0.001,0.001,0.002,0.001,0.001
766,0,0.001,0.001,0,0.005,0.001,0,0.001,0.001,0.001,0.002,0.001,0.001
767,0,0.001,0.002,0,0.005,0.001,0,0.001,0.001,0.001,0.002,0.001,0.001
768,0,0.001,0.002,0,0.005,0.001,0,0.001,0.001,0.001,0.002,0.001,0.001
769,0,0.001,0.002,0,0.005,0.001,0,0.001,0.001,0.001,0.002,0.001,0.001
770,0,0.001,0.002,0,0.005,0.001,0,0.001,0.001,0.001,0.002,0.001,0.001
771,0,0.001,0.002,0,0.005,0.001,0,0.001,0.001,0.001,0.002,0.001,0.001
772,0,0.001,0.002,0,0.005,0.001,0,0.001,0.001,0.001,0.002,0.001,0.001
773,0,0.001,0.002,0,0.005,0.001,0,0.001,0.001,0.001,0.002,0.001,0.001
774,0,0.001,0.002,0,0.005,0.001,0,0.001,0.001,0.001,0.002,0.001,0.001
775,0,0.001,0.002,0,0.005,0.001,0,0.001,0.001,0.001,0.002,0.001,0.001
776,0,0.001,0.002,0,0.005,0.001,0,0.001,0.001,0.001,0.002,0.001,0.001
777,0,0.001,0.002,0,0.005,0.001,0,0.001,0.001,0.001,0.002,0.001,0.001
778,0,0.001,0.002,0,0.005,0.001,0,0.001,0.001,0.001,0.002,0.001,0.001
779,0,0.001,0.002,0.001,0.005,0.001,0,0.001,0.001,0.001,0.002,0.001,0.001
780,0,0.001,0.002,0.001,0.005,0.001,0,0.001,0.001,0.001,0.002,0.001,0.001
781,0,0.001,0.002,0,0.005,0.001,0,0.001,0.001,0.001,0.002,0.001,0.001
782,0,0.001,0.002,0,0.005,0.001,0,0.001,0.001,0.001,0.002,0.001,0.001
783,0,0.001,0.002,0,0.005,0.001,0,0.001,0.001,0.001,0.002,0.001,0.001
784,0,0.001,0.002,0.001,0.005,0.001,0,0.001,0.001,0.001,0.002,0.001,0.001
785,0,0.001,0.002,0.001,0.005,0.001,0,0.001,0.001,0.001,0.002,0.001,0.001
786,0,0.001,0.002,0,0.005,0.001,0,0.001,0.001,0.001,0.002,0.001,0.001
787,0,0.001,0.002,0,0.005,0.001,0,0.001,0.001,0.001,0.002,0.001,0.001
788,0,0.001,0.002,0.001,0.005,0.001,0,0.001,0.001,0.001,0.002,0.001,0.001
789,0,0.001,0.002,0.001,0.005,0.001,0,0.001,0.001,0.001,0.002,0.001,0.001
790,0,0.001,0.002,0.001,0.005,0.001,0,0.001,0.001,0.001,0.002,0.001,0.001
791,0,0.001,0.002,0.001,0.005,0.001,0,0.001,0.001,0.001,0.002,0.001,0.001
792,0,0.001,0.002,0.001,0.005,0.001,0,0.001,0.001,0.001,0.002,0.001,0.001
793,0,0.001,0.002,0.001,0.005,0.001,0,0.001,0.001,0.001,0.002,0.001,0.001
794,0,0.001,0.002,0,0.005,0.001,0,0.001,0.001,0.001,0.002,0.001,0.001
795,0,0.001,0.002,0.001,0.005,0.001,0,0.001,0.001,0.001,0.002,0.001,0.001
796,0,0.001,0.002,0,0.005,0.001,0,0.001,0.001,0.001,0.002,0.001,0.001
797,0,0.001,0.002,0,0.005,0.001,0,0.001,0.001,0.001,0.002,0.001,0.001
798,0,0.001,0.002,0.001,0.005,0.001,0,0.001,0.001,0.001,0.002,0.001,0.001
799,0,0.001,0.002,0.001,0.005,0.001,0,0.001,0.001,0.001,0.002,0.001,0.001
800,0,0.001,0.002,0.001,0.005,0.001,0,0.001,0.001,0.001,0.002,0.001,0.001
801,0,0.001,0.002,0.001,0.005,0.001,0,0.001,0.001,0.001,0.002,0.001,0.001
802,0,0.001,0.002,0.001,0.005,0.001,0,0.001,0.001,0.001,0.002,0.001,0.001
803,0,0.001,0.002,0.001,0.005,0.001,0,0.001,0.001,0.001,0.002,0.001,0.001
804,0,0.001,0.002,0.001,0.005,0.001,0,0.001,0.001,0.001,0.002,0.001,0.001
805,0,0.001,0.002,0.001,0.005,0.001,0,0.001,0.001,0.001,0.002,0.001,0.001
806,0,0.001,0.002,0.001,0.005,0.001,0,0.001,0.001,0.001,0.002,0.001,0.001
807,0,0.001,0.002,0.001,0.005,0.001,0,0.001,0.001,0.001,0.002,0.001,0.001
808,0,0.001,0.002,0.001,0.005,0.001,0,0.001,0.001,0.001,0.002,0.001,0.001
809,0,0.001,0.002,0.001,0.005,0.001,0,0.001,0.001,0.001,0.002,0.001,0.001
810,0,0.001,0.002,0.001,0.005,0.001,0,0.001,0.001,0.001,0.002,0.001,0.001
811,0,0.001,0.002,0.001,0.005,0.001,0,0.001,0.001,0.001,0.002,0.001,0.001
812,0,0.001,0.002,0.001,0.005,0.001,0,0.001,0.001,0.001,0.002,0.001,0.001
813,0,0.001,0.002,0.001,0.005,0.001,0,0.001,0.001,0.001,0.002,0.001,0.001
814,0,0.001,0.002,0.001,0.005,0.001,0,0.001,0.001,0.001,0.002,0.001,0.001
815,0,0.001,0.002,0.001,0.005,0.001,0,0.001,0.001,0.001,0.002,0.001,0.001
816,0,0.001,0.002,0,0.005,0.001,0,0.001,0.001,0.001,0.002,0.001,0.001
817,0,0.001,0.002,0,0.005,0.001,0,0.001,0.001,0.001,0.002,0.001,0.001
818,0,0.001,0.002,0,0.005,0.001,0,0.001,0.001,0.001,0.002,0.001,0.001
819,0,0.001,0.002,0.001,0.005,0.001,0,0.001,0.001,0.001,0.002,0.001,0.001
820,0,0.001,0.002,0,0.005,0.001,0,0.001,0.001,0.001,0.002,0.001,0.001
821,0,0.001,0.001,0,0.005,0.001,0,0.001,0.001,0.001,0.002,0.001,0.001
822,0,0.001,0.001,0,0.005,0.001,0,0.001,0.001,0.001,0.002,0.001,0.001
823,0,0.001,0.001,0,0.005,0.001,0,0.001,0.001,0.001,0.002,0.001,0.001
824,0,0.001,0.001,0,0.005,0.001,0,0.001,0.001,0.001,0.002,0.001,0.001
825,0,0.001,0.001,0,0.005,0.001,0,0.001,0.001,0.001,0.002,0.001,0.001
826,0,0.001,0.001,0,0.005,0.001,0,0.001,0.001,0.001,0.002,0.001,0.001
827,0,0.001,0.001,0,0.005,0.001,0,0.001,0.001,0.001,0.002,0.001,0.001
828,0,0.001,0.001,0,0.005,0.001,0,0.001,0.001,0.001,0.002,0.001,0.001
829,0,0.001,0.001,0,0.005,0.001,0,0.001,0.001,0.001,0.002,0.001,0.001
830,0,0.001,0.001,0,0.005,0.001,0,0.001,0.001,0.001,0.002,0.001,0.001
831,0,0.001,0.001,0,0.005,0.001,0,0.001,0.001,0.001,0.002,0.001,0.001
832,0,0.001,0.001,0,0.005,0.001,0,0.001,0.001,0.001,0.001,0.001,0.001
833,0,0.001,0.001,0,0.005,0.001,0,0.001,0.001,0.001,0.002,0.001,0.001
834,0,0.001,0.001,0,0.005,0.001,0,0.001,0.001,0.001,0.001,0.001,0.001
835,0,0.001,0.001,0,0.005,0.001,0,0.001,0.001,0.001,0.001,0.001,0.001
836,0,0.001,0.001,0,0.005,0.001,0,0.001,0.001,0.001,0.001,0.001,0.001
837,0,0.001,0.001,0,0.005,0.001,0,0.001,0.001,0.001,0.001,0.001,0.001
838,0,0.001,0.001,0,0.005,0.001,0,0.001,0.001,0.001,0.001,0.001,0.001
839,0,0.001,0.001,0,0.005,0.001,0,0.001,0.001,0.001,0.001,0.001,0.001
840,0,0.001,0.001,0,0.005,0.001,0,0.001,0,0.001,0.001,0,0.001
841,0,0.001,0.001,0,0.005,0.001,0,0.001,0,0.001,0.001,0,0.001
842,0,0.001,0.001,0,0.005,0.001,0,0.001,0,0.001,0.001,0.001,0.001
843,0,0.001,0.001,0,0.005,0.001,0,0.001,0,0.001,0.001,0,0.001
844,0,0.001,0.001,0,0.005,0.001,0,0.001,0,0.001,0.001,0,0.001
845,0,0.001,0.001,0,0.005,0.001,0,0.001,0.001,0.001,0.001,0.001,0.001
846,0,0.001,0.001,0,0.005,0.001,0,0.001,0,0.001,0.001,0.001,0.001
847,0,0.001,0.001,0,0.005,0.001,0,0.001,0.001,0.001,0.001,0,0.001
848,0,0.001,0.001,0,0.005,0.001,0,0.001,0.001,0.001,0.001,0.001,0.001
849,0,0.001,0.001,0,0.005,0.001,0,0.001,0.001,0.001,0.001,0.001,0.001
850,0,0.001,0.001,0,0.005,0.001,0,0.001,0,0.001,0.001,0.001,0.001
