Wavelength nm.	RawData ...	RawData ...	RawData ...	RawData ...	RawData ...	RawData ...	RawData ...	RawData ...	RawData ...	RawData ...	RawData ...	RawData ...	RawData ...	RawData ...
190.00	0.002	0.358	0.384	0.500	0.410	0.203	0.509	0.472	0.438	0.390	0.419	0.426	0.449	0.387
191.00	0.002	0.348	0.350	0.467	0.375	0.194	0.463	0.439	0.407	0.360	0.382	0.396	0.413	0.354
192.00	0.003	0.340	0.321	0.437	0.344	0.188	0.423	0.411	0.374	0.334	0.348	0.366	0.376	0.323
193.00	0.002	0.330	0.289	0.403	0.311	0.181	0.379	0.382	0.339	0.304	0.313	0.334	0.339	0.290
194.00	0.001	0.320	0.265	0.375	0.284	0.174	0.344	0.358	0.312	0.279	0.286	0.310	0.311	0.264
195.00	0.002	0.313	0.244	0.351	0.260	0.169	0.315	0.336	0.287	0.258	0.261	0.287	0.287	0.241
196.00	0.003	0.308	0.225	0.330	0.240	0.165	0.289	0.318	0.267	0.238	0.241	0.267	0.267	0.222
197.00	0.003	0.301	0.208	0.312	0.222	0.161	0.267	0.302	0.248	0.221	0.222	0.249	0.249	0.204
198.00	0.003	0.295	0.193	0.295	0.205	0.157	0.248	0.287	0.232	0.206	0.206	0.234	0.232	0.189
199.00	0.004	0.290	0.180	0.281	0.192	0.154	0.231	0.277	0.218	0.193	0.192	0.223	0.219	0.178
200.00	0.004	0.285	0.170	0.270	0.179	0.151	0.217	0.267	0.207	0.183	0.180	0.212	0.207	0.167
201.00	0.003	0.280	0.160	0.259	0.168	0.148	0.204	0.258	0.196	0.173	0.170	0.203	0.196	0.158
202.00	0.003	0.275	0.151	0.249	0.159	0.145	0.193	0.249	0.186	0.164	0.160	0.194	0.187	0.149
203.00	0.003	0.270	0.144	0.240	0.151	0.143	0.184	0.242	0.179	0.156	0.153	0.187	0.179	0.142
204.00	0.003	0.265	0.138	0.232	0.144	0.140	0.176	0.235	0.172	0.149	0.146	0.180	0.171	0.135
205.00	0.003	0.259	0.132	0.225	0.137	0.137	0.169	0.229	0.165	0.143	0.140	0.174	0.165	0.130
206.00	0.003	0.254	0.127	0.218	0.132	0.135	0.163	0.222	0.160	0.138	0.135	0.168	0.159	0.125
207.00	0.003	0.248	0.123	0.212	0.127	0.132	0.158	0.216	0.155	0.133	0.130	0.164	0.154	0.121
208.00	0.003	0.242	0.119	0.205	0.122	0.129	0.153	0.210	0.150	0.129	0.127	0.159	0.149	0.118
209.00	0.003	0.235	0.115	0.199	0.118	0.126	0.148	0.203	0.145	0.124	0.122	0.154	0.144	0.114
210.00	0.003	0.228	0.112	0.192	0.114	0.123	0.145	0.196	0.140	0.121	0.119	0.149	0.140	0.111
211.00	0.003	0.220	0.109	0.186	0.110	0.120	0.141	0.189	0.136	0.117	0.116	0.144	0.135	0.108
212.00	0.003	0.212	0.105	0.179	0.107	0.116	0.137	0.182	0.131	0.114	0.113	0.139	0.131	0.105
213.00	0.003	0.203	0.103	0.171	0.103	0.113	0.134	0.174	0.127	0.111	0.110	0.134	0.127	0.102
214.00	0.003	0.194	0.100	0.164	0.100	0.109	0.130	0.166	0.122	0.108	0.107	0.129	0.123	0.099
215.00	0.003	0.186	0.098	0.158	0.098	0.106	0.128	0.158	0.118	0.105	0.105	0.124	0.119	0.097
216.00	0.003	0.178	0.095	0.151	0.095	0.103	0.125	0.150	0.114	0.102	0.102	0.120	0.115	0.095
217.00	0.003	0.169	0.093	0.144	0.092	0.099	0.122	0.143	0.110	0.100	0.100	0.115	0.111	0.092
218.00	0.003	0.161	0.091	0.138	0.090	0.096	0.119	0.136	0.106	0.097	0.098	0.111	0.108	0.090
219.00	0.003	0.154	0.089	0.132	0.088	0.093	0.117	0.129	0.103	0.095	0.096	0.107	0.105	0.088
220.00	0.003	0.146	0.087	0.126	0.086	0.090	0.114	0.122	0.099	0.093	0.094	0.103	0.102	0.086
221.00	0.003	0.139	0.086	0.121	0.084	0.087	0.112	0.116	0.096	0.091	0.092	0.099	0.099	0.085
222.00	0.003	0.132	0.084	0.116	0.082	0.085	0.109	0.110	0.093	0.089	0.091	0.095	0.096	0.083
223.00	0.003	0.126	0.082	0.111	0.081	0.082	0.107	0.105	0.091	0.088	0.089	0.092	0.093	0.082
224.00	0.002	0.120	0.080	0.106	0.079	0.080	0.105	0.099	0.087	0.086	0.087	0.089	0.091	0.080
225.00	0.003	0.115	0.079	0.101	0.077	0.077	0.103	0.094	0.085	0.084	0.086	0.086	0.089	0.078
226.00	0.003	0.109	0.077	0.097	0.076	0.075	0.100	0.090	0.083	0.082	0.084	0.083	0.086	0.077
227.00	0.003	0.105	0.076	0.094	0.074	0.073	0.098	0.086	0.080	0.081	0.083	0.080	0.084	0.076
228.00	0.003	0.101	0.075	0.090	0.073	0.072	0.096	0.083	0.078	0.080	0.081	0.078	0.082	0.074
229.00	0.003	0.097	0.073	0.087	0.071	0.070	0.094	0.079	0.076	0.078	0.080	0.076	0.080	0.073
230.00	0.003	0.093	0.072	0.084	0.070	0.068	0.092	0.076	0.074	0.077	0.078	0.074	0.078	0.071
231.00	0.002	0.090	0.071	0.081	0.069	0.067	0.090	0.073	0.072	0.075	0.077	0.072	0.076	0.070
232.00	0.002	0.087	0.069	0.078	0.067	0.065	0.089	0.070	0.071	0.074	0.076	0.069	0.074	0.069
233.00	0.002	0.085	0.068	0.076	0.066	0.064	0.087	0.068	0.069	0.073	0.074	0.068	0.073	0.068
234.00	0.002	0.082	0.067	0.074	0.065	0.063	0.085	0.066	0.067	0.072	0.073	0.066	0.071	0.066
235.00	0.002	0.080	0.066	0.072	0.064	0.061	0.084	0.064	0.066	0.070	0.072	0.065	0.070	0.065
236.00	0.002	0.078	0.065	0.070	0.063	0.060	0.082	0.063	0.065	0.069	0.071	0.064	0.069	0.064
237.00	0.002	0.076	0.064	0.069	0.062	0.059	0.081	0.061	0.064	0.068	0.070	0.063	0.067	0.063
238.00	0.002	0.075	0.063	0.067	0.061	0.058	0.080	0.060	0.062	0.067	0.069	0.061	0.066	0.062
239.00	0.002	0.073	0.062	0.066	0.060	0.057	0.079	0.059	0.061	0.066	0.068	0.060	0.065	0.061
240.00	0.002	0.072	0.061	0.065	0.059	0.057	0.078	0.058	0.061	0.066	0.067	0.060	0.064	0.061
241.00	0.002	0.071	0.060	0.064	0.058	0.056	0.077	0.057	0.060	0.065	0.066	0.059	0.063	0.060
242.00	0.002	0.070	0.060	0.063	0.057	0.055	0.076	0.056	0.059	0.064	0.065	0.058	0.062	0.059
243.00	0.002	0.069	0.059	0.062	0.057	0.054	0.075	0.055	0.058	0.063	0.064	0.057	0.062	0.058
244.00	0.002	0.068	0.058	0.061	0.056	0.053	0.074	0.054	0.057	0.063	0.064	0.056	0.061	0.057
245.00	0.002	0.067	0.058	0.061	0.055	0.053	0.073	0.053	0.057	0.062	0.063	0.055	0.060	0.057
246.00	0.002	0.066	0.057	0.060	0.055	0.052	0.073	0.053	0.056	0.061	0.062	0.055	0.060	0.056
247.00	0.002	0.065	0.056	0.059	0.054	0.052	0.072	0.052	0.055	0.061	0.062	0.054	0.059	0.056
248.00	0.002	0.065	0.056	0.059	0.054	0.051	0.072	0.051	0.055	0.060	0.061	0.054	0.058	0.055
249.00	0.002	0.064	0.056	0.058	0.053	0.051	0.071	0.051	0.054	0.060	0.061	0.053	0.058	0.055
250.00	0.002	0.063	0.055	0.058	0.053	0.050	0.071	0.051	0.054	0.059	0.060	0.053	0.057	0.054
251.00	0.002	0.063	0.055	0.057	0.052	0.050	0.070	0.050	0.054	0.059	0.060	0.052	0.057	0.054
252.00	0.002	0.062	0.054	0.057	0.052	0.049	0.070	0.050	0.053	0.058	0.059	0.052	0.057	0.054
253.00	0.002	0.062	0.054	0.056	0.052	0.049	0.069	0.049	0.053	0.058	0.059	0.051	0.056	0.053
254.00	0.002	0.061	0.053	0.055	0.051	0.048	0.069	0.049	0.052	0.057	0.058	0.051	0.055	0.053
255.00	0.002	0.061	0.053	0.055	0.051	0.048	0.069	0.048	0.052	0.057	0.058	0.050	0.055	0.052
256.00	0.002	0.060	0.052	0.055	0.051	0.047	0.068	0.048	0.051	0.056	0.057	0.050	0.054	0.052
257.00	0.002	0.060	0.052	0.054	0.050	0.047	0.068	0.048	0.051	0.056	0.057	0.049	0.054	0.051
258.00	0.002	0.059	0.052	0.054	0.050	0.047	0.068	0.047	0.051	0.055	0.056	0.049	0.054	0.051
259.00	0.002	0.059	0.051	0.053	0.049	0.046	0.067	0.047	0.050	0.055	0.056	0.049	0.053	0.051
260.00	0.002	0.058	0.051	0.053	0.049	0.046	0.067	0.046	0.050	0.054	0.055	0.048	0.053	0.050
261.00	0.002	0.058	0.050	0.052	0.049	0.045	0.066	0.046	0.049	0.054	0.055	0.048	0.052	0.050
262.00	0.002	0.058	0.050	0.052	0.048	0.045	0.066	0.045	0.049	0.053	0.054	0.047	0.052	0.049
263.00	0.002	0.057	0.049	0.051	0.048	0.044	0.065	0.045	0.049	0.053	0.054	0.047	0.051	0.049
264.00	0.002	0.056	0.049	0.051	0.047	0.044	0.064	0.044	0.048	0.052	0.053	0.046	0.051	0.049
265.00	0.002	0.056	0.048	0.050	0.047	0.044	0.064	0.044	0.048	0.051	0.053	0.046	0.050	0.048
266.00	0.002	0.056	0.048	0.050	0.046	0.043	0.063	0.043	0.047	0.051	0.052	0.045	0.049	0.047
267.00	0.001	0.055	0.047	0.049	0.046	0.043	0.062	0.043	0.047	0.050	0.051	0.045	0.049	0.047
268.00	0.001	0.054	0.047	0.049	0.045	0.042	0.061	0.042	0.046	0.049	0.051	0.044	0.048	0.046
269.00	0.001	0.054	0.046	0.048	0.045	0.042	0.060	0.041	0.046	0.049	0.050	0.043	0.047	0.045
270.00	0.001	0.053	0.045	0.047	0.044	0.041	0.060	0.041	0.045	0.048	0.049	0.043	0.046	0.045
271.00	0.001	0.053	0.045	0.047	0.044	0.041	0.059	0.040	0.045	0.047	0.049	0.042	0.046	0.044
272.00	0.002	0.053	0.044	0.046	0.043	0.041	0.058	0.040	0.044	0.047	0.048	0.042	0.045	0.044
273.00	0.002	0.052	0.044	0.046	0.042	0.040	0.057	0.040	0.043	0.046	0.048	0.041	0.045	0.043
274.00	0.002	0.052	0.043	0.045	0.042	0.040	0.056	0.039	0.043	0.045	0.047	0.041	0.044	0.043
275.00	0.002	0.051	0.042	0.044	0.041	0.039	0.055	0.038	0.042	0.045	0.046	0.040	0.043	0.042
276.00	0.001	0.051	0.041	0.043	0.040	0.039	0.054	0.038	0.042	0.044	0.045	0.039	0.042	0.041
277.00	0.001	0.050	0.041	0.043	0.040	0.038	0.053	0.037	0.041	0.043	0.045	0.038	0.042	0.041
278.00	0.002	0.050	0.040	0.042	0.039	0.038	0.052	0.036	0.040	0.042	0.044	0.038	0.041	0.040
279.00	0.001	0.049	0.039	0.042	0.038	0.038	0.052	0.036	0.040	0.042	0.043	0.037	0.040	0.039
280.00	0.002	0.049	0.039	0.041	0.037	0.037	0.051	0.035	0.039	0.041	0.042	0.037	0.039	0.039
281.00	0.001	0.048	0.038	0.040	0.037	0.037	0.050	0.035	0.038	0.040	0.042	0.036	0.039	0.038
282.00	0.002	0.048	0.037	0.040	0.036	0.036	0.049	0.034	0.038	0.039	0.041	0.035	0.038	0.037
283.00	0.001	0.047	0.036	0.039	0.035	0.036	0.048	0.033	0.037	0.038	0.040	0.035	0.037	0.036
284.00	0.001	0.046	0.036	0.038	0.034	0.035	0.047	0.033	0.036	0.038	0.039	0.034	0.036	0.036
285.00	0.001	0.046	0.035	0.038	0.034	0.035	0.046	0.032	0.036	0.037	0.039	0.033	0.036	0.035
286.00	0.001	0.045	0.034	0.037	0.033	0.035	0.046	0.032	0.035	0.036	0.038	0.033	0.035	0.034
287.00	0.001	0.045	0.033	0.036	0.032	0.034	0.045	0.031	0.035	0.036	0.037	0.032	0.034	0.034
288.00	0.001	0.044	0.033	0.036	0.031	0.033	0.044	0.030	0.034	0.035	0.036	0.032	0.033	0.033
289.00	0.001	0.043	0.032	0.035	0.031	0.033	0.043	0.029	0.033	0.034	0.035	0.031	0.032	0.032
290.00	0.001	0.043	0.031	0.034	0.030	0.032	0.043	0.029	0.032	0.033	0.035	0.030	0.031	0.031
291.00	0.001	0.043	0.031	0.034	0.029	0.032	0.042	0.029	0.032	0.032	0.034	0.030	0.031	0.031
292.00	0.001	0.042	0.030	0.033	0.029	0.032	0.041	0.028	0.031	0.032	0.033	0.029	0.030	0.030
293.00	0.001	0.041	0.029	0.032	0.028	0.031	0.040	0.027	0.030	0.031	0.033	0.028	0.030	0.030
294.00	0.001	0.041	0.029	0.032	0.027	0.031	0.040	0.027	0.030	0.030	0.032	0.028	0.029	0.029
295.00	0.001	0.040	0.028	0.031	0.027	0.030	0.039	0.026	0.029	0.029	0.031	0.027	0.028	0.028
296.00	0.001	0.040	0.028	0.031	0.026	0.030	0.039	0.026	0.029	0.029	0.031	0.027	0.028	0.028
297.00	0.001	0.039	0.027	0.030	0.025	0.029	0.038	0.025	0.028	0.028	0.030	0.026	0.027	0.027
298.00	0.001	0.039	0.027	0.030	0.025	0.029	0.037	0.024	0.028	0.028	0.030	0.026	0.026	0.027
299.00	0.001	0.038	0.026	0.029	0.024	0.029	0.036	0.024	0.027	0.027	0.029	0.025	0.026	0.026
300.00	0.001	0.038	0.026	0.029	0.024	0.028	0.036	0.024	0.027	0.027	0.029	0.025	0.025	0.026
301.00	0.001	0.037	0.025	0.028	0.023	0.028	0.035	0.023	0.026	0.026	0.028	0.024	0.025	0.025
302.00	0.001	0.037	0.025	0.028	0.023	0.028	0.035	0.023	0.026	0.026	0.028	0.024	0.024	0.025
303.00	0.001	0.036	0.024	0.027	0.022	0.027	0.034	0.022	0.025	0.025	0.027	0.023	0.024	0.024
304.00	0.001	0.036	0.024	0.027	0.022	0.027	0.034	0.022	0.024	0.024	0.026	0.023	0.023	0.024
305.00	0.001	0.036	0.023	0.026	0.021	0.027	0.033	0.022	0.024	0.024	0.026	0.022	0.023	0.023
306.00	0.001	0.035	0.023	0.026	0.021	0.027	0.033	0.021	0.024	0.024	0.026	0.022	0.023	0.023
307.00	0.001	0.035	0.022	0.026	0.020	0.026	0.032	0.020	0.023	0.023	0.025	0.022	0.022	0.022
308.00	0.001	0.034	0.022	0.025	0.020	0.026	0.032	0.020	0.023	0.023	0.025	0.021	0.021	0.022
309.00	0.001	0.034	0.022	0.025	0.019	0.025	0.031	0.020	0.023	0.022	0.024	0.021	0.021	0.022
310.00	0.001	0.034	0.021	0.024	0.019	0.025	0.031	0.020	0.022	0.022	0.024	0.021	0.021	0.021
311.00	0.001	0.033	0.021	0.024	0.018	0.025	0.031	0.019	0.022	0.022	0.024	0.020	0.021	0.021
312.00	0.001	0.033	0.020	0.024	0.018	0.024	0.031	0.019	0.021	0.021	0.023	0.020	0.020	0.021
313.00	0.001	0.032	0.020	0.023	0.018	0.024	0.030	0.018	0.021	0.021	0.023	0.019	0.020	0.020
314.00	0.001	0.032	0.020	0.023	0.017	0.024	0.030	0.018	0.020	0.020	0.023	0.019	0.019	0.020
315.00	0.001	0.032	0.020	0.022	0.017	0.023	0.029	0.018	0.020	0.020	0.022	0.019	0.019	0.020
316.00	0.001	0.031	0.019	0.022	0.017	0.023	0.029	0.018	0.020	0.020	0.021	0.018	0.019	0.019
317.00	0.001	0.031	0.019	0.022	0.017	0.023	0.029	0.017	0.020	0.019	0.021	0.018	0.018	0.019
318.00	0.001	0.030	0.019	0.022	0.016	0.023	0.029	0.017	0.019	0.019	0.021	0.018	0.018	0.018
319.00	0.001	0.030	0.018	0.022	0.016	0.022	0.028	0.017	0.019	0.019	0.021	0.018	0.018	0.018
320.00	0.001	0.030	0.018	0.021	0.015	0.022	0.028	0.016	0.019	0.018	0.020	0.017	0.017	0.018
321.00	0.001	0.030	0.017	0.021	0.015	0.022	0.027	0.016	0.018	0.018	0.020	0.017	0.017	0.018
322.00	0.001	0.029	0.017	0.020	0.015	0.021	0.027	0.016	0.018	0.018	0.020	0.017	0.017	0.017
323.00	0.001	0.029	0.017	0.020	0.014	0.021	0.027	0.015	0.018	0.017	0.019	0.016	0.017	0.017
324.00	0.001	0.029	0.017	0.020	0.014	0.021	0.027	0.016	0.017	0.017	0.019	0.016	0.016	0.017
325.00	0.002	0.028	0.016	0.020	0.014	0.021	0.027	0.015	0.017	0.017	0.019	0.016	0.016	0.017
326.00	0.001	0.028	0.016	0.019	0.014	0.020	0.026	0.015	0.017	0.017	0.019	0.016	0.016	0.016
327.00	0.001	0.027	0.016	0.019	0.013	0.020	0.026	0.014	0.016	0.016	0.018	0.015	0.015	0.016
328.00	0.001	0.027	0.016	0.019	0.013	0.020	0.025	0.014	0.016	0.016	0.018	0.016	0.015	0.016
329.00	0.001	0.027	0.015	0.019	0.013	0.020	0.025	0.014	0.016	0.016	0.018	0.015	0.015	0.016
330.00	0.001	0.027	0.015	0.019	0.013	0.020	0.025	0.014	0.016	0.016	0.018	0.015	0.015	0.015
331.00	0.001	0.026	0.015	0.018	0.013	0.019	0.025	0.014	0.015	0.016	0.017	0.014	0.015	0.015
332.00	0.001	0.026	0.015	0.018	0.012	0.019	0.025	0.013	0.015	0.015	0.017	0.014	0.014	0.015
333.00	0.001	0.026	0.014	0.018	0.012	0.018	0.024	0.013	0.015	0.015	0.017	0.014	0.014	0.015
334.00	0.001	0.025	0.014	0.017	0.012	0.018	0.024	0.013	0.014	0.014	0.016	0.014	0.014	0.014
335.00	0.001	0.025	0.014	0.017	0.011	0.018	0.024	0.013	0.014	0.014	0.016	0.014	0.013	0.014
336.00	0.001	0.025	0.014	0.017	0.011	0.018	0.023	0.013	0.014	0.014	0.016	0.013	0.013	0.014
337.00	0.001	0.024	0.014	0.016	0.011	0.017	0.023	0.012	0.014	0.013	0.015	0.013	0.013	0.013
338.00	0.001	0.024	0.013	0.016	0.011	0.018	0.023	0.012	0.014	0.014	0.016	0.013	0.013	0.014
339.00	0.002	0.024	0.013	0.017	0.011	0.018	0.023	0.012	0.014	0.014	0.016	0.013	0.013	0.014
340.00	0.003	0.025	0.015	0.018	0.012	0.018	0.024	0.013	0.015	0.015	0.017	0.014	0.014	0.014
341.00	0.001	0.023	0.013	0.016	0.010	0.017	0.022	0.012	0.013	0.013	0.015	0.012	0.013	0.013
342.00	0.001	0.023	0.013	0.016	0.010	0.016	0.022	0.011	0.013	0.013	0.014	0.012	0.012	0.013
343.00	0.001	0.022	0.012	0.016	0.010	0.016	0.022	0.011	0.013	0.012	0.015	0.012	0.012	0.012
344.00	0.001	0.022	0.012	0.015	0.010	0.016	0.021	0.011	0.012	0.012	0.014	0.011	0.012	0.012
345.00	0.001	0.022	0.012	0.015	0.010	0.016	0.022	0.011	0.012	0.012	0.014	0.012	0.012	0.012
346.00	0.001	0.021	0.012	0.015	0.010	0.015	0.021	0.011	0.012	0.012	0.014	0.011	0.011	0.012
347.00	0.001	0.021	0.011	0.015	0.009	0.015	0.021	0.011	0.012	0.012	0.014	0.011	0.011	0.012
348.00	0.001	0.021	0.011	0.014	0.009	0.015	0.021	0.011	0.011	0.011	0.013	0.011	0.011	0.011
349.00	0.001	0.021	0.011	0.014	0.009	0.015	0.021	0.010	0.011	0.011	0.013	0.011	0.011	0.011
350.00	0.001	0.021	0.011	0.014	0.009	0.015	0.021	0.010	0.011	0.011	0.013	0.011	0.011	0.011
351.00	0.001	0.020	0.011	0.014	0.009	0.014	0.020	0.010	0.011	0.011	0.013	0.010	0.011	0.011
352.00	0.001	0.020	0.011	0.014	0.009	0.014	0.020	0.010	0.011	0.011	0.013	0.010	0.010	0.010
353.00	0.001	0.020	0.011	0.014	0.009	0.014	0.020	0.010	0.011	0.011	0.012	0.010	0.010	0.010
354.00	0.001	0.019	0.011	0.013	0.008	0.014	0.020	0.009	0.011	0.010	0.012	0.010	0.010	0.010
355.00	0.001	0.019	0.010	0.013	0.008	0.014	0.019	0.009	0.010	0.010	0.012	0.010	0.010	0.010
356.00	0.001	0.019	0.010	0.013	0.008	0.013	0.019	0.009	0.010	0.010	0.012	0.010	0.010	0.010
357.00	0.001	0.019	0.010	0.013	0.008	0.013	0.019	0.009	0.010	0.010	0.012	0.009	0.009	0.010
358.00	0.001	0.019	0.010	0.013	0.008	0.013	0.019	0.009	0.010	0.010	0.011	0.009	0.009	0.010
359.00	0.001	0.019	0.010	0.013	0.008	0.013	0.019	0.009	0.010	0.010	0.012	0.009	0.009	0.010
360.00	0.001	0.018	0.009	0.012	0.008	0.013	0.019	0.009	0.010	0.010	0.011	0.009	0.009	0.010
361.00	0.001	0.018	0.009	0.012	0.007	0.012	0.018	0.008	0.010	0.009	0.011	0.009	0.009	0.009
362.00	0.001	0.018	0.009	0.012	0.007	0.012	0.019	0.008	0.009	0.009	0.011	0.008	0.009	0.009
363.00	0.001	0.017	0.009	0.012	0.007	0.012	0.018	0.008	0.009	0.009	0.011	0.009	0.009	0.009
364.00	0.001	0.017	0.009	0.011	0.007	0.012	0.018	0.007	0.009	0.009	0.010	0.008	0.008	0.008
365.00	0.001	0.017	0.009	0.012	0.007	0.012	0.018	0.008	0.009	0.009	0.010	0.008	0.008	0.009
366.00	0.001	0.017	0.009	0.012	0.007	0.012	0.018	0.008	0.009	0.009	0.010	0.008	0.009	0.009
367.00	0.001	0.017	0.008	0.011	0.007	0.012	0.018	0.008	0.009	0.008	0.010	0.008	0.008	0.008
368.00	0.001	0.016	0.008	0.011	0.006	0.011	0.017	0.007	0.008	0.008	0.010	0.007	0.008	0.008
369.00	0.001	0.016	0.008	0.011	0.006	0.011	0.017	0.007	0.008	0.008	0.010	0.007	0.008	0.008
370.00	0.001	0.016	0.008	0.011	0.006	0.011	0.017	0.007	0.008	0.008	0.009	0.007	0.008	0.008
371.00	0.001	0.016	0.008	0.011	0.006	0.011	0.017	0.007	0.008	0.008	0.010	0.007	0.008	0.008
372.00	0.001	0.015	0.008	0.011	0.006	0.011	0.017	0.007	0.008	0.008	0.009	0.007	0.007	0.008
373.00	0.001	0.015	0.008	0.010	0.006	0.010	0.017	0.007	0.008	0.008	0.009	0.007	0.007	0.007
374.00	0.001	0.015	0.008	0.010	0.006	0.010	0.017	0.006	0.008	0.007	0.009	0.007	0.007	0.007
375.00	0.001	0.015	0.008	0.010	0.006	0.010	0.017	0.006	0.008	0.008	0.009	0.007	0.007	0.007
376.00	0.001	0.015	0.007	0.010	0.006	0.010	0.017	0.007	0.008	0.008	0.009	0.007	0.007	0.007
377.00	0.001	0.015	0.007	0.010	0.006	0.010	0.016	0.006	0.007	0.007	0.008	0.006	0.007	0.007
378.00	0.001	0.014	0.007	0.010	0.006	0.010	0.016	0.006	0.007	0.007	0.009	0.007	0.007	0.007
379.00	0.001	0.014	0.007	0.010	0.005	0.010	0.016	0.006	0.007	0.007	0.008	0.006	0.007	0.007
380.00	0.001	0.014	0.007	0.010	0.005	0.010	0.016	0.006	0.007	0.007	0.008	0.006	0.007	0.007
381.00	0.001	0.014	0.007	0.009	0.005	0.009	0.016	0.006	0.007	0.007	0.008	0.006	0.006	0.006
382.00	0.001	0.014	0.007	0.010	0.005	0.009	0.016	0.006	0.007	0.007	0.008	0.006	0.006	0.006
383.00	0.001	0.014	0.007	0.009	0.005	0.009	0.016	0.006	0.007	0.007	0.008	0.006	0.006	0.006
384.00	0.001	0.013	0.006	0.009	0.005	0.009	0.016	0.005	0.007	0.007	0.008	0.006	0.006	0.006
385.00	0.000	0.013	0.006	0.009	0.005	0.009	0.015	0.005	0.006	0.006	0.008	0.006	0.006	0.006
386.00	0.001	0.013	0.006	0.009	0.005	0.009	0.015	0.005	0.006	0.006	0.007	0.006	0.006	0.006
387.00	0.001	0.013	0.006	0.009	0.005	0.009	0.015	0.005	0.006	0.006	0.007	0.005	0.006	0.006
388.00	0.001	0.013	0.006	0.009	0.005	0.009	0.015	0.005	0.006	0.006	0.007	0.005	0.006	0.006
389.00	0.001	0.013	0.006	0.009	0.005	0.009	0.015	0.005	0.006	0.006	0.007	0.005	0.006	0.006
390.00	0.001	0.013	0.006	0.009	0.005	0.008	0.015	0.005	0.006	0.006	0.007	0.005	0.006	0.005
391.00	0.000	0.012	0.006	0.008	0.004	0.008	0.015	0.005	0.006	0.006	0.007	0.005	0.005	0.005
392.00	0.001	0.012	0.006	0.008	0.004	0.008	0.015	0.005	0.006	0.006	0.007	0.005	0.005	0.005
393.00	0.000	0.012	0.005	0.008	0.004	0.008	0.014	0.005	0.006	0.006	0.007	0.005	0.005	0.005
394.00	0.000	0.012	0.005	0.008	0.004	0.008	0.014	0.004	0.005	0.005	0.007	0.005	0.005	0.005
395.00	0.001	0.012	0.005	0.008	0.004	0.008	0.014	0.004	0.005	0.005	0.007	0.005	0.005	0.005
396.00	0.001	0.012	0.005	0.008	0.004	0.008	0.014	0.004	0.005	0.005	0.007	0.004	0.005	0.005
397.00	0.000	0.011	0.005	0.008	0.004	0.008	0.014	0.004	0.005	0.005	0.006	0.004	0.005	0.005
398.00	0.000	0.011	0.005	0.008	0.004	0.007	0.014	0.004	0.005	0.005	0.006	0.004	0.005	0.005
399.00	0.000	0.011	0.005	0.008	0.004	0.007	0.014	0.004	0.005	0.005	0.006	0.004	0.005	0.005
400.00	0.001	0.011	0.005	0.008	0.004	0.007	0.014	0.004	0.005	0.005	0.006	0.004	0.005	0.005
401.00	0.000	0.011	0.005	0.008	0.004	0.007	0.014	0.004	0.005	0.005	0.006	0.004	0.005	0.005
402.00	0.000	0.011	0.005	0.008	0.004	0.007	0.014	0.004	0.005	0.005	0.006	0.004	0.005	0.004
403.00	0.001	0.011	0.005	0.007	0.003	0.007	0.013	0.004	0.005	0.005	0.006	0.004	0.005	0.004
404.00	0.000	0.011	0.005	0.007	0.003	0.007	0.013	0.004	0.005	0.005	0.006	0.004	0.005	0.004
405.00	0.000	0.011	0.005	0.007	0.003	0.007	0.013	0.004	0.005	0.005	0.006	0.004	0.005	0.004
406.00	0.000	0.010	0.005	0.007	0.003	0.007	0.013	0.004	0.005	0.005	0.006	0.004	0.004	0.004
407.00	0.000	0.010	0.004	0.007	0.003	0.007	0.013	0.004	0.005	0.005	0.005	0.004	0.004	0.004
408.00	0.001	0.010	0.004	0.007	0.003	0.007	0.013	0.004	0.005	0.005	0.006	0.004	0.004	0.004
409.00	0.000	0.010	0.004	0.007	0.003	0.007	0.013	0.004	0.004	0.005	0.006	0.004	0.004	0.004
410.00	0.001	0.010	0.004	0.007	0.003	0.006	0.013	0.004	0.004	0.004	0.005	0.004	0.004	0.004
411.00	0.000	0.010	0.004	0.007	0.003	0.006	0.013	0.003	0.004	0.004	0.005	0.004	0.004	0.004
412.00	0.000	0.010	0.004	0.007	0.003	0.006	0.013	0.003	0.004	0.004	0.005	0.004	0.004	0.004
413.00	0.001	0.010	0.004	0.007	0.003	0.006	0.013	0.003	0.004	0.004	0.005	0.004	0.004	0.004
414.00	0.001	0.010	0.004	0.007	0.003	0.006	0.013	0.003	0.004	0.004	0.005	0.004	0.004	0.004
415.00	0.001	0.010	0.004	0.007	0.003	0.006	0.013	0.003	0.004	0.005	0.005	0.004	0.004	0.004
416.00	0.001	0.010	0.004	0.007	0.003	0.006	0.013	0.003	0.004	0.005	0.005	0.004	0.004	0.004
417.00	0.000	0.009	0.004	0.007	0.003	0.006	0.013	0.003	0.004	0.004	0.005	0.003	0.004	0.003
418.00	0.000	0.009	0.004	0.007	0.003	0.006	0.012	0.003	0.004	0.004	0.005	0.003	0.004	0.003
419.00	0.001	0.009	0.004	0.007	0.003	0.006	0.012	0.003	0.004	0.004	0.005	0.003	0.004	0.004
420.00	0.001	0.009	0.004	0.007	0.003	0.006	0.012	0.003	0.004	0.004	0.005	0.003	0.004	0.004
421.00	0.000	0.009	0.004	0.006	0.003	0.006	0.012	0.003	0.004	0.004	0.005	0.003	0.004	0.003
422.00	0.000	0.009	0.004	0.006	0.003	0.006	0.012	0.003	0.004	0.004	0.005	0.003	0.004	0.003
423.00	0.001	0.009	0.004	0.006	0.003	0.006	0.012	0.003	0.004	0.004	0.005	0.003	0.004	0.003
424.00	0.001	0.009	0.004	0.006	0.003	0.006	0.012	0.003	0.004	0.004	0.005	0.003	0.004	0.003
425.00	0.001	0.009	0.004	0.006	0.003	0.006	0.012	0.003	0.004	0.004	0.005	0.003	0.004	0.003
426.00	0.001	0.009	0.004	0.006	0.003	0.006	0.012	0.003	0.004	0.004	0.005	0.003	0.004	0.003
427.00	0.001	0.009	0.004	0.006	0.003	0.005	0.012	0.003	0.004	0.004	0.004	0.003	0.003	0.003
428.00	0.001	0.008	0.003	0.006	0.003	0.005	0.012	0.003	0.003	0.004	0.004	0.003	0.003	0.003
429.00	0.000	0.008	0.003	0.006	0.002	0.005	0.012	0.003	0.003	0.003	0.004	0.003	0.003	0.003
430.00	0.000	0.008	0.003	0.006	0.002	0.005	0.012	0.003	0.003	0.003	0.004	0.003	0.003	0.003
431.00	0.000	0.008	0.003	0.006	0.002	0.005	0.012	0.003	0.003	0.003	0.004	0.003	0.003	0.003
432.00	0.000	0.008	0.003	0.006	0.002	0.005	0.012	0.002	0.003	0.003	0.004	0.002	0.003	0.003
433.00	0.000	0.008	0.003	0.006	0.002	0.005	0.011	0.002	0.003	0.003	0.004	0.002	0.003	0.003
434.00	0.000	0.008	0.003	0.006	0.002	0.005	0.011	0.002	0.003	0.003	0.004	0.002	0.003	0.003
435.00	0.000	0.008	0.003	0.005	0.002	0.005	0.011	0.002	0.003	0.003	0.004	0.002	0.003	0.003
436.00	0.000	0.008	0.003	0.005	0.002	0.005	0.011	0.002	0.003	0.003	0.004	0.002	0.003	0.003
437.00	0.000	0.008	0.003	0.006	0.002	0.005	0.011	0.002	0.003	0.003	0.004	0.002	0.003	0.003
438.00	0.000	0.008	0.003	0.005	0.002	0.005	0.011	0.002	0.003	0.003	0.004	0.002	0.003	0.002
439.00	0.000	0.007	0.003	0.005	0.002	0.005	0.011	0.002	0.003	0.003	0.004	0.002	0.003	0.002
440.00	0.000	0.007	0.003	0.005	0.002	0.005	0.011	0.002	0.003	0.003	0.004	0.002	0.003	0.003
441.00	0.000	0.007	0.003	0.005	0.002	0.004	0.011	0.002	0.003	0.003	0.004	0.002	0.003	0.002
442.00	0.000	0.007	0.003	0.005	0.002	0.005	0.011	0.002	0.003	0.003	0.004	0.002	0.003	0.002
443.00	0.000	0.007	0.003	0.005	0.002	0.004	0.011	0.002	0.003	0.003	0.004	0.002	0.003	0.002
444.00	0.000	0.007	0.003	0.005	0.002	0.004	0.011	0.002	0.003	0.003	0.004	0.002	0.003	0.002
445.00	0.000	0.007	0.003	0.005	0.002	0.004	0.011	0.002	0.003	0.003	0.003	0.002	0.003	0.002
446.00	0.000	0.007	0.003	0.005	0.002	0.004	0.011	0.002	0.003	0.003	0.004	0.002	0.003	0.002
447.00	0.000	0.007	0.003	0.005	0.002	0.004	0.011	0.002	0.003	0.003	0.003	0.002	0.003	0.002
448.00	0.000	0.007	0.003	0.005	0.002	0.004	0.011	0.002	0.002	0.003	0.003	0.002	0.003	0.002
449.00	0.000	0.007	0.003	0.005	0.002	0.004	0.011	0.002	0.003	0.003	0.003	0.002	0.003	0.002
450.00	0.000	0.007	0.003	0.005	0.002	0.004	0.010	0.002	0.003	0.003	0.003	0.002	0.002	0.002
451.00	0.000	0.007	0.002	0.005	0.002	0.004	0.010	0.002	0.002	0.003	0.003	0.002	0.002	0.002
452.00	0.000	0.007	0.002	0.005	0.002	0.004	0.010	0.002	0.002	0.003	0.003	0.002	0.002	0.002
453.00	0.000	0.007	0.002	0.005	0.002	0.004	0.010	0.002	0.002	0.003	0.003	0.002	0.002	0.002
454.00	0.000	0.007	0.003	0.005	0.002	0.004	0.010	0.002	0.003	0.003	0.003	0.002	0.003	0.002
455.00	0.000	0.007	0.003	0.005	0.002	0.004	0.011	0.002	0.002	0.003	0.003	0.002	0.003	0.002
456.00	0.000	0.007	0.003	0.005	0.002	0.004	0.010	0.002	0.002	0.003	0.003	0.002	0.003	0.002
457.00	0.000	0.007	0.002	0.005	0.002	0.004	0.010	0.002	0.002	0.003	0.003	0.002	0.002	0.002
458.00	0.000	0.007	0.002	0.005	0.002	0.004	0.010	0.002	0.002	0.002	0.003	0.002	0.002	0.002
459.00	0.000	0.006	0.002	0.005	0.002	0.004	0.010	0.002	0.002	0.002	0.003	0.002	0.002	0.002
460.00	0.000	0.006	0.002	0.005	0.002	0.004	0.010	0.002	0.002	0.002	0.003	0.002	0.002	0.002
461.00	0.000	0.006	0.002	0.005	0.002	0.004	0.010	0.002	0.002	0.003	0.003	0.002	0.002	0.002
462.00	0.000	0.006	0.002	0.005	0.002	0.004	0.010	0.002	0.002	0.002	0.003	0.002	0.002	0.002
463.00	0.000	0.006	0.002	0.004	0.002	0.004	0.010	0.001	0.002	0.002	0.003	0.001	0.002	0.002
464.00	0.000	0.006	0.002	0.005	0.002	0.004	0.010	0.002	0.002	0.002	0.003	0.001	0.002	0.002
465.00	0.000	0.006	0.002	0.004	0.002	0.004	0.010	0.001	0.002	0.002	0.003	0.001	0.002	0.002
466.00	0.000	0.006	0.002	0.004	0.002	0.004	0.010	0.001	0.002	0.002	0.003	0.001	0.002	0.002
467.00	0.000	0.006	0.002	0.004	0.002	0.004	0.010	0.001	0.002	0.002	0.003	0.001	0.002	0.002
468.00	0.000	0.006	0.002	0.004	0.002	0.004	0.010	0.001	0.002	0.002	0.003	0.001	0.002	0.002
469.00	0.000	0.006	0.002	0.004	0.001	0.004	0.010	0.001	0.002	0.002	0.003	0.001	0.002	0.002
470.00	0.000	0.006	0.002	0.004	0.001	0.003	0.010	0.001	0.002	0.002	0.003	0.001	0.002	0.002
471.00	0.000	0.006	0.002	0.004	0.001	0.003	0.010	0.001	0.002	0.002	0.003	0.001	0.002	0.002
472.00	0.000	0.006	0.002	0.004	0.001	0.003	0.010	0.001	0.002	0.002	0.003	0.001	0.002	0.002
473.00	0.000	0.006	0.002	0.004	0.001	0.003	0.010	0.001	0.002	0.002	0.003	0.001	0.002	0.002
474.00	0.000	0.006	0.002	0.004	0.001	0.003	0.010	0.001	0.002	0.002	0.003	0.001	0.002	0.002
475.00	0.000	0.006	0.002	0.004	0.001	0.003	0.009	0.001	0.002	0.002	0.003	0.001	0.002	0.001
476.00	0.000	0.006	0.002	0.004	0.001	0.003	0.009	0.001	0.002	0.002	0.003	0.001	0.002	0.002
477.00	0.000	0.006	0.002	0.004	0.001	0.003	0.009	0.001	0.002	0.002	0.003	0.001	0.002	0.002
478.00	0.000	0.006	0.002	0.004	0.001	0.003	0.009	0.001	0.002	0.002	0.002	0.001	0.002	0.001
479.00	0.000	0.006	0.002	0.004	0.001	0.003	0.009	0.001	0.002	0.002	0.003	0.001	0.002	0.001
480.00	0.000	0.006	0.002	0.004	0.001	0.003	0.009	0.001	0.002	0.002	0.002	0.001	0.002	0.001
481.00	0.000	0.005	0.002	0.004	0.001	0.003	0.009	0.001	0.002	0.002	0.002	0.001	0.002	0.001
482.00	0.000	0.005	0.002	0.004	0.001	0.003	0.009	0.001	0.002	0.002	0.002	0.001	0.002	0.001
483.00	0.000	0.005	0.002	0.004	0.001	0.003	0.009	0.001	0.002	0.002	0.002	0.001	0.002	0.001
484.00	0.000	0.005	0.002	0.004	0.001	0.003	0.009	0.001	0.002	0.002	0.002	0.001	0.002	0.001
485.00	0.000	0.005	0.002	0.004	0.001	0.003	0.009	0.001	0.002	0.002	0.002	0.001	0.002	0.001
486.00	0.000	0.005	0.002	0.004	0.001	0.003	0.009	0.001	0.002	0.002	0.002	0.001	0.002	0.001
487.00	0.000	0.005	0.002	0.004	0.001	0.003	0.009	0.001	0.002	0.002	0.002	0.001	0.002	0.001
488.00	0.000	0.005	0.002	0.004	0.001	0.003	0.009	0.001	0.002	0.002	0.002	0.001	0.002	0.001
489.00	0.000	0.005	0.002	0.004	0.001	0.003	0.009	0.001	0.002	0.002	0.002	0.001	0.002	0.001
490.00	0.000	0.005	0.002	0.004	0.001	0.003	0.009	0.001	0.002	0.002	0.002	0.001	0.002	0.001
491.00	0.000	0.005	0.002	0.004	0.001	0.003	0.009	0.001	0.002	0.002	0.002	0.001	0.002	0.001
492.00	0.000	0.005	0.001	0.004	0.001	0.003	0.009	0.001	0.001	0.002	0.002	0.001	0.001	0.001
493.00	0.000	0.005	0.002	0.003	0.001	0.003	0.009	0.001	0.001	0.002	0.002	0.001	0.002	0.001
494.00	0.000	0.005	0.002	0.004	0.001	0.003	0.009	0.001	0.002	0.002	0.002	0.001	0.002	0.001
495.00	0.000	0.005	0.002	0.004	0.001	0.003	0.009	0.001	0.002	0.002	0.002	0.001	0.002	0.001
496.00	0.000	0.005	0.002	0.004	0.001	0.003	0.009	0.001	0.001	0.002	0.002	0.001	0.002	0.001
497.00	0.000	0.005	0.001	0.003	0.001	0.003	0.009	0.001	0.001	0.002	0.002	0.001	0.001	0.001
498.00	0.000	0.005	0.001	0.004	0.001	0.003	0.009	0.001	0.001	0.002	0.002	0.001	0.002	0.001
499.00	0.000	0.005	0.002	0.004	0.001	0.003	0.009	0.001	0.001	0.002	0.002	0.001	0.002	0.001
500.00	0.000	0.005	0.001	0.003	0.001	0.003	0.009	0.001	0.001	0.002	0.002	0.001	0.001	0.001
501.00	0.000	0.005	0.001	0.003	0.001	0.003	0.009	0.001	0.001	0.002	0.002	0.001	0.002	0.001
502.00	0.000	0.005	0.001	0.003	0.001	0.003	0.008	0.001	0.001	0.002	0.002	0.001	0.001	0.001
503.00	0.000	0.005	0.001	0.003	0.001	0.003	0.008	0.001	0.001	0.002	0.002	0.001	0.001	0.001
504.00	0.000	0.005	0.001	0.003	0.001	0.003	0.008	0.001	0.001	0.002	0.002	0.001	0.001	0.001
505.00	0.000	0.005	0.001	0.003	0.001	0.003	0.008	0.001	0.001	0.002	0.002	0.001	0.002	0.001
506.00	0.000	0.005	0.002	0.004	0.001	0.003	0.009	0.001	0.001	0.002	0.002	0.001	0.002	0.001
507.00	0.000	0.005	0.001	0.003	0.001	0.003	0.008	0.001	0.001	0.002	0.002	0.001	0.001	0.001
508.00	0.000	0.005	0.001	0.003	0.001	0.003	0.008	0.001	0.001	0.002	0.002	0.001	0.001	0.001
509.00	0.000	0.005	0.001	0.003	0.001	0.003	0.008	0.001	0.001	0.002	0.002	0.001	0.002	0.001
510.00	0.000	0.005	0.001	0.003	0.001	0.003	0.008	0.001	0.001	0.002	0.002	0.001	0.001	0.001
511.00	0.000	0.005	0.001	0.003	0.001	0.003	0.008	0.001	0.001	0.002	0.002	0.001	0.001	0.001
512.00	0.000	0.005	0.001	0.003	0.001	0.003	0.008	0.001	0.001	0.002	0.002	0.001	0.002	0.001
513.00	0.000	0.005	0.001	0.003	0.001	0.003	0.008	0.001	0.001	0.002	0.002	0.001	0.001	0.001
514.00	0.000	0.005	0.001	0.003	0.001	0.003	0.008	0.001	0.001	0.002	0.002	0.001	0.001	0.001
515.00	0.000	0.005	0.001	0.003	0.001	0.003	0.008	0.001	0.001	0.002	0.002	0.001	0.001	0.001
516.00	0.000	0.005	0.001	0.003	0.001	0.002	0.008	0.001	0.001	0.002	0.002	0.001	0.001	0.001
517.00	0.000	0.005	0.001	0.003	0.001	0.003	0.008	0.001	0.001	0.002	0.002	0.001	0.001	0.001
518.00	0.000	0.005	0.001	0.003	0.001	0.003	0.008	0.001	0.001	0.002	0.002	0.001	0.001	0.001
519.00	0.000	0.005	0.001	0.003	0.001	0.003	0.008	0.001	0.001	0.002	0.002	0.001	0.001	0.001
520.00	0.000	0.004	0.001	0.003	0.001	0.002	0.008	0.001	0.001	0.001	0.002	0.001	0.001	0.001
521.00	0.000	0.004	0.001	0.003	0.001	0.002	0.008	0.001	0.001	0.001	0.002	0.001	0.001	0.001
522.00	0.000	0.004	0.001	0.003	0.001	0.002	0.008	0.001	0.001	0.001	0.002	0.001	0.001	0.001
523.00	0.000	0.004	0.001	0.003	0.001	0.002	0.008	0.001	0.001	0.001	0.002	0.000	0.001	0.001
524.00	0.000	0.004	0.001	0.003	0.001	0.002	0.008	0.001	0.001	0.001	0.002	0.001	0.001	0.001
525.00	0.000	0.004	0.001	0.003	0.001	0.002	0.008	0.001	0.001	0.001	0.002	0.001	0.001	0.001
526.00	0.000	0.004	0.001	0.003	0.001	0.002	0.008	0.001	0.001	0.001	0.002	0.000	0.001	0.001
527.00	0.000	0.004	0.001	0.003	0.001	0.002	0.008	0.001	0.001	0.001	0.002	0.000	0.001	0.001
528.00	0.000	0.004	0.001	0.003	0.001	0.002	0.008	0.001	0.001	0.001	0.002	0.000	0.001	0.001
529.00	0.000	0.004	0.001	0.003	0.001	0.002	0.008	0.001	0.001	0.001	0.002	0.000	0.001	0.001
530.00	0.000	0.004	0.001	0.003	0.001	0.002	0.008	0.000	0.001	0.001	0.002	0.000	0.001	0.001
531.00	0.000	0.004	0.001	0.003	0.001	0.002	0.008	0.000	0.001	0.001	0.002	0.000	0.001	0.001
532.00	-0.000	0.004	0.001	0.003	0.001	0.002	0.008	0.000	0.001	0.001	0.002	0.000	0.001	0.001
533.00	0.000	0.004	0.001	0.003	0.001	0.002	0.008	0.000	0.001	0.001	0.002	0.000	0.001	0.001
534.00	0.000	0.004	0.001	0.003	0.001	0.002	0.008	0.001	0.001	0.001	0.002	0.000	0.001	0.001
535.00	0.000	0.004	0.001	0.003	0.001	0.002	0.008	0.001	0.001	0.001	0.002	0.001	0.001	0.001
536.00	0.001	0.005	0.002	0.004	0.002	0.003	0.009	0.002	0.002	0.002	0.003	0.001	0.002	0.002
537.00	0.000	0.004	0.001	0.003	0.001	0.002	0.008	0.001	0.001	0.001	0.002	0.001	0.001	0.001
538.00	0.000	0.004	0.001	0.003	0.001	0.002	0.007	0.000	0.001	0.001	0.002	0.000	0.001	0.001
539.00	0.000	0.004	0.001	0.003	0.001	0.002	0.007	0.000	0.001	0.001	0.001	0.000	0.001	0.001
540.00	0.000	0.004	0.001	0.003	0.001	0.002	0.007	0.000	0.001	0.001	0.001	0.000	0.001	0.001
541.00	0.000	0.004	0.001	0.003	0.001	0.002	0.007	0.000	0.001	0.001	0.001	0.000	0.001	0.001
542.00	0.000	0.004	0.001	0.003	0.001	0.002	0.007	0.000	0.001	0.001	0.001	0.000	0.001	0.001
543.00	0.000	0.004	0.001	0.003	0.001	0.002	0.007	0.000	0.001	0.001	0.001	0.000	0.001	0.001
544.00	0.000	0.004	0.001	0.003	0.000	0.002	0.007	0.000	0.001	0.001	0.001	0.000	0.001	0.001
545.00	0.000	0.004	0.001	0.003	0.001	0.002	0.007	0.000	0.001	0.001	0.002	0.000	0.001	0.001
546.00	0.000	0.004	0.001	0.003	0.000	0.002	0.007	0.000	0.001	0.001	0.001	0.000	0.001	0.001
547.00	0.000	0.004	0.001	0.003	0.000	0.002	0.007	0.000	0.001	0.001	0.001	0.000	0.001	0.001
548.00	0.000	0.004	0.001	0.003	0.000	0.002	0.007	0.000	0.001	0.001	0.001	0.000	0.001	0.001
549.00	0.000	0.004	0.001	0.003	0.000	0.002	0.007	0.000	0.001	0.001	0.001	0.000	0.001	0.001
550.00	0.000	0.004	0.001	0.003	0.001	0.002	0.007	0.000	0.001	0.001	0.001	0.000	0.001	0.001
551.00	0.000	0.004	0.001	0.003	0.001	0.002	0.007	0.000	0.001	0.001	0.001	0.000	0.001	0.001
552.00	0.000	0.004	0.001	0.003	0.000	0.002	0.007	0.000	0.001	0.001	0.001	0.000	0.001	0.001
553.00	0.000	0.004	0.001	0.003	0.000	0.002	0.007	0.000	0.001	0.001	0.001	0.000	0.001	0.001
554.00	0.000	0.004	0.001	0.003	0.001	0.002	0.007	0.000	0.001	0.001	0.001	0.000	0.001	0.001
555.00	0.000	0.004	0.001	0.002	0.000	0.002	0.007	0.000	0.001	0.001	0.001	0.000	0.001	0.001
556.00	0.000	0.004	0.001	0.002	0.000	0.002	0.007	0.000	0.001	0.001	0.001	0.000	0.001	0.001
557.00	0.000	0.004	0.001	0.002	0.000	0.002	0.007	0.000	0.001	0.001	0.001	0.000	0.001	0.001
558.00	0.000	0.004	0.001	0.002	0.000	0.002	0.007	0.000	0.001	0.001	0.001	0.000	0.001	0.001
559.00	0.000	0.004	0.001	0.002	0.000	0.002	0.007	0.000	0.001	0.001	0.001	0.000	0.001	0.001
560.00	0.000	0.004	0.001	0.003	0.001	0.002	0.007	0.000	0.001	0.001	0.001	0.000	0.001	0.001
561.00	0.000	0.004	0.001	0.003	0.001	0.002	0.007	0.000	0.001	0.001	0.001	0.000	0.001	0.001
562.00	0.000	0.004	0.001	0.003	0.000	0.002	0.007	0.000	0.001	0.001	0.001	0.000	0.001	0.001
563.00	0.000	0.004	0.001	0.003	0.000	0.002	0.007	0.000	0.001	0.001	0.001	0.000	0.001	0.001
564.00	0.000	0.004	0.001	0.003	0.001	0.002	0.007	0.000	0.001	0.001	0.001	0.000	0.001	0.001
565.00	0.000	0.004	0.001	0.003	0.001	0.002	0.007	0.000	0.001	0.001	0.001	0.000	0.001	0.001
566.00	0.000	0.003	0.001	0.003	0.001	0.002	0.007	0.000	0.001	0.001	0.001	0.000	0.001	0.001
567.00	0.000	0.003	0.001	0.002	0.000	0.002	0.007	0.000	0.001	0.001	0.001	0.000	0.001	0.001
568.00	0.000	0.004	0.001	0.002	0.001	0.002	0.007	0.000	0.001	0.001	0.001	0.000	0.001	0.001
569.00	0.000	0.004	0.001	0.002	0.001	0.002	0.007	0.000	0.001	0.001	0.001	0.000	0.001	0.001
570.00	0.000	0.003	0.001	0.002	0.000	0.002	0.007	0.000	0.001	0.001	0.001	0.000	0.001	0.001
571.00	0.000	0.003	0.001	0.002	0.001	0.002	0.007	0.000	0.001	0.001	0.001	0.000	0.001	0.001
572.00	0.000	0.003	0.001	0.002	0.000	0.002	0.007	0.000	0.001	0.001	0.001	0.000	0.001	0.001
573.00	0.000	0.003	0.001	0.002	0.000	0.002	0.007	0.000	0.001	0.001	0.001	0.000	0.001	0.000
574.00	0.000	0.003	0.001	0.002	0.000	0.002	0.007	0.000	0.001	0.001	0.001	0.000	0.001	0.000
575.00	0.000	0.003	0.001	0.002	0.000	0.002	0.007	0.000	0.001	0.001	0.001	0.000	0.001	0.000
576.00	0.000	0.003	0.001	0.002	0.000	0.002	0.007	0.000	0.001	0.001	0.001	0.000	0.001	0.001
577.00	0.000	0.003	0.001	0.002	0.000	0.002	0.007	0.000	0.001	0.001	0.001	0.000	0.001	0.000
578.00	0.000	0.003	0.001	0.002	0.000	0.002	0.007	0.000	0.001	0.001	0.001	0.000	0.001	0.000
579.00	0.000	0.003	0.001	0.002	0.001	0.002	0.007	0.000	0.001	0.001	0.001	0.000	0.001	0.001
580.00	0.000	0.003	0.001	0.002	0.001	0.002	0.007	0.000	0.001	0.001	0.001	0.000	0.001	0.001
581.00	0.000	0.003	0.001	0.002	0.000	0.002	0.007	0.000	0.001	0.001	0.001	0.000	0.001	0.000
582.00	0.000	0.003	0.001	0.002	0.000	0.002	0.007	0.000	0.001	0.001	0.001	0.000	0.001	0.001
583.00	0.000	0.003	0.001	0.002	0.000	0.002	0.007	0.000	0.001	0.001	0.001	0.000	0.001	0.001
584.00	0.000	0.003	0.001	0.002	0.000	0.002	0.007	0.000	0.001	0.001	0.001	0.000	0.001	0.001
585.00	0.000	0.003	0.001	0.002	0.000	0.002	0.007	0.000	0.001	0.001	0.001	0.000	0.001	0.001
586.00	0.000	0.003	0.001	0.002	0.000	0.002	0.007	0.000	0.001	0.001	0.001	0.000	0.001	0.000
587.00	0.000	0.003	0.001	0.002	0.000	0.002	0.007	0.000	0.001	0.001	0.001	0.000	0.001	0.000
588.00	0.000	0.003	0.001	0.002	0.000	0.002	0.007	0.000	0.001	0.001	0.001	0.000	0.001	0.000
589.00	0.000	0.003	0.001	0.002	0.000	0.002	0.007	0.000	0.001	0.001	0.001	0.000	0.001	0.000
590.00	0.000	0.003	0.001	0.002	0.000	0.002	0.007	0.000	0.001	0.001	0.001	0.000	0.001	0.000
591.00	0.000	0.003	0.001	0.002	0.000	0.002	0.007	0.000	0.001	0.001	0.001	0.000	0.001	0.000
592.00	0.000	0.003	0.001	0.002	0.000	0.002	0.007	0.000	0.001	0.001	0.001	0.000	0.001	0.000
593.00	0.000	0.003	0.001	0.002	0.000	0.002	0.007	0.000	0.001	0.001	0.001	0.000	0.001	0.000
594.00	0.000	0.003	0.001	0.002	0.000	0.002	0.007	0.000	0.001	0.001	0.001	0.000	0.001	0.001
595.00	0.000	0.003	0.001	0.002	0.000	0.002	0.007	0.000	0.001	0.001	0.001	0.000	0.001	0.000
596.00	0.000	0.003	0.001	0.002	0.000	0.002	0.007	0.000	0.001	0.001	0.001	0.000	0.001	0.000
597.00	0.000	0.003	0.001	0.002	0.000	0.002	0.007	0.000	0.001	0.001	0.001	0.000	0.001	0.000
598.00	0.000	0.003	0.001	0.002	0.000	0.001	0.007	0.000	0.001	0.001	0.001	-0.000	0.001	0.000
599.00	0.000	0.003	0.001	0.002	0.000	0.001	0.006	0.000	0.000	0.001	0.001	-0.000	0.001	0.000
600.00	-0.000	0.003	0.001	0.002	0.000	0.001	0.006	0.000	0.000	0.001	0.001	-0.000	0.001	0.000
601.00	0.000	0.003	0.001	0.002	0.000	0.001	0.006	0.000	0.001	0.001	0.001	0.000	0.001	0.000
602.00	0.000	0.003	0.001	0.002	0.000	0.002	0.006	0.000	0.001	0.001	0.001	0.000	0.001	0.000
603.00	0.000	0.003	0.001	0.002	0.000	0.002	0.006	0.000	0.001	0.001	0.001	0.000	0.001	0.000
604.00	-0.000	0.003	0.001	0.002	0.000	0.001	0.006	0.000	0.001	0.001	0.001	-0.000	0.001	0.000
605.00	0.000	0.003	0.001	0.002	0.000	0.001	0.006	0.000	0.001	0.001	0.001	0.000	0.001	0.000
606.00	0.000	0.003	0.001	0.002	0.000	0.002	0.006	0.000	0.001	0.001	0.001	0.000	0.001	0.000
607.00	0.000	0.003	0.001	0.002	0.000	0.001	0.006	0.000	0.001	0.001	0.001	-0.000	0.001	0.000
608.00	0.000	0.003	0.001	0.002	0.000	0.001	0.006	0.000	0.001	0.001	0.001	-0.000	0.001	0.000
609.00	0.000	0.003	0.001	0.002	0.000	0.001	0.006	0.000	0.001	0.001	0.001	-0.000	0.001	0.000
610.00	0.000	0.003	0.001	0.002	0.000	0.001	0.006	0.000	0.001	0.001	0.001	-0.000	0.001	0.000
611.00	0.000	0.003	0.001	0.002	0.000	0.001	0.006	0.000	0.001	0.001	0.001	-0.000	0.001	0.000
612.00	0.000	0.003	0.001	0.002	0.000	0.001	0.006	0.000	0.001	0.001	0.001	0.000	0.001	0.000
613.00	0.000	0.003	0.001	0.002	0.000	0.001	0.006	0.000	0.001	0.001	0.001	-0.000	0.001	0.000
614.00	0.000	0.003	0.001	0.002	0.000	0.001	0.006	0.000	0.001	0.001	0.001	-0.000	0.001	0.000
615.00	0.000	0.003	0.001	0.002	0.000	0.001	0.006	0.000	0.001	0.001	0.001	-0.000	0.001	0.000
616.00	0.000	0.003	0.001	0.002	0.000	0.001	0.006	0.000	0.001	0.001	0.001	-0.000	0.001	0.000
617.00	0.000	0.003	0.001	0.002	0.000	0.001	0.006	0.000	0.001	0.001	0.001	-0.000	0.001	0.000
618.00	0.000	0.003	0.001	0.002	0.000	0.001	0.006	0.000	0.001	0.001	0.001	-0.000	0.001	0.000
619.00	-0.000	0.003	0.001	0.002	0.000	0.001	0.006	0.000	0.000	0.001	0.001	-0.000	0.001	0.000
620.00	0.000	0.003	0.001	0.002	0.000	0.001	0.006	0.000	0.000	0.001	0.001	-0.000	0.001	0.000
621.00	0.000	0.003	0.001	0.002	0.000	0.001	0.006	0.000	0.001	0.001	0.001	-0.000	0.001	0.000
622.00	0.000	0.003	0.001	0.002	0.000	0.001	0.006	0.000	0.000	0.001	0.001	-0.000	0.001	0.000
623.00	0.000	0.003	0.001	0.002	0.000	0.001	0.006	0.000	0.000	0.001	0.001	-0.000	0.001	0.000
624.00	0.000	0.003	0.001	0.002	0.000	0.001	0.006	0.000	0.000	0.001	0.001	-0.000	0.001	0.000
625.00	0.000	0.003	0.001	0.002	0.000	0.001	0.006	0.000	0.000	0.001	0.001	-0.000	0.000	0.000
626.00	0.000	0.003	0.001	0.002	0.000	0.001	0.006	0.000	0.000	0.001	0.001	-0.000	0.001	0.000
627.00	0.000	0.003	0.001	0.002	0.000	0.001	0.006	0.000	0.000	0.001	0.001	-0.000	0.001	0.000
628.00	-0.000	0.003	0.000	0.002	0.000	0.001	0.006	0.000	0.000	0.001	0.001	-0.000	0.000	0.000
629.00	-0.000	0.003	0.000	0.002	0.000	0.001	0.006	0.000	0.000	0.001	0.001	-0.000	0.000	0.000
630.00	-0.000	0.003	0.001	0.002	0.000	0.001	0.006	0.000	0.000	0.001	0.001	-0.000	0.000	0.000
631.00	-0.000	0.003	0.001	0.002	0.000	0.001	0.006	0.000	0.000	0.001	0.001	-0.000	0.001	0.000
632.00	-0.000	0.003	0.001	0.002	0.000	0.001	0.006	0.000	0.000	0.000	0.001	-0.000	0.001	0.000
633.00	0.000	0.003	0.001	0.002	0.000	0.001	0.006	0.000	0.000	0.001	0.001	-0.000	0.001	0.000
634.00	0.000	0.003	0.000	0.002	0.000	0.001	0.006	0.000	0.000	0.001	0.001	-0.000	0.001	0.000
635.00	-0.000	0.003	0.000	0.002	0.000	0.001	0.006	0.000	0.000	0.000	0.001	-0.000	0.000	0.000
636.00	-0.000	0.003	0.000	0.002	0.000	0.001	0.006	0.000	0.000	0.000	0.001	-0.000	0.000	0.000
637.00	-0.000	0.002	0.000	0.002	0.000	0.001	0.006	-0.000	0.000	0.000	0.001	-0.000	0.000	0.000
638.00	-0.000	0.002	0.000	0.002	0.000	0.001	0.006	-0.000	0.000	0.000	0.001	-0.000	0.000	0.000
639.00	-0.000	0.002	0.000	0.002	-0.000	0.001	0.006	-0.000	0.000	0.000	0.001	-0.000	0.000	0.000
640.00	-0.000	0.003	0.001	0.002	-0.000	0.001	0.006	0.000	0.000	0.000	0.001	-0.000	0.000	0.000
641.00	-0.000	0.003	0.000	0.002	-0.000	0.001	0.006	-0.000	0.000	0.000	0.001	-0.000	0.000	0.000
642.00	-0.000	0.003	0.000	0.002	0.000	0.001	0.006	0.000	0.000	0.000	0.001	-0.000	0.000	0.000
643.00	-0.000	0.002	0.000	0.002	0.000	0.001	0.006	-0.000	0.000	0.000	0.001	-0.000	0.000	0.000
644.00	0.000	0.003	0.001	0.002	0.000	0.001	0.006	0.000	0.000	0.001	0.001	-0.000	0.001	0.000
645.00	-0.000	0.003	0.001	0.002	0.000	0.001	0.006	0.000	0.000	0.001	0.001	-0.000	0.001	0.000
646.00	0.000	0.003	0.001	0.002	0.000	0.001	0.006	0.000	0.000	0.001	0.001	-0.000	0.001	0.000
647.00	0.000	0.003	0.001	0.002	0.000	0.001	0.006	0.000	0.000	0.001	0.001	-0.000	0.001	0.000
648.00	0.000	0.003	0.001	0.002	0.000	0.001	0.006	0.000	0.000	0.001	0.001	-0.000	0.001	0.000
649.00	0.000	0.003	0.001	0.002	0.000	0.001	0.006	0.000	0.000	0.001	0.001	-0.000	0.001	0.000
650.00	-0.000	0.003	0.001	0.002	0.000	0.001	0.006	0.000	0.000	0.001	0.001	-0.000	0.001	0.000
651.00	0.000	0.003	0.001	0.002	0.000	0.001	0.006	0.000	0.000	0.001	0.001	-0.000	0.001	0.000
652.00	-0.000	0.003	0.001	0.002	0.000	0.001	0.006	0.000	0.000	0.001	0.001	-0.000	0.001	0.000
653.00	0.000	0.003	0.001	0.002	0.000	0.001	0.006	0.000	0.000	0.001	0.001	0.000	0.001	0.000
654.00	0.000	0.003	0.001	0.002	0.000	0.001	0.006	0.000	0.000	0.001	0.001	0.000	0.001	0.000
655.00	0.000	0.003	0.001	0.002	0.000	0.001	0.006	0.000	0.000	0.001	0.001	0.000	0.001	0.000
656.00	0.000	0.003	0.001	0.002	0.000	0.001	0.005	0.000	0.000	0.001	0.001	0.000	0.001	0.000
657.00	0.000	0.003	0.001	0.002	0.000	0.001	0.005	0.000	0.000	0.001	0.001	0.000	0.001	0.000
658.00	0.000	0.003	0.001	0.002	0.000	0.001	0.006	0.000	0.000	0.001	0.001	-0.000	0.001	0.000
659.00	0.000	0.003	0.001	0.002	0.000	0.001	0.006	0.000	0.000	0.001	0.001	-0.000	0.001	0.000
660.00	0.000	0.003	0.001	0.002	0.000	0.001	0.006	0.000	0.000	0.001	0.001	0.000	0.001	0.000
661.00	0.000	0.003	0.001	0.002	0.000	0.001	0.005	0.000	0.000	0.001	0.001	0.000	0.001	0.000
662.00	0.000	0.003	0.001	0.002	0.000	0.001	0.005	0.000	0.000	0.001	0.001	-0.000	0.001	0.000
663.00	0.000	0.003	0.001	0.002	0.000	0.001	0.005	0.000	0.000	0.001	0.001	-0.000	0.001	0.000
664.00	0.000	0.003	0.001	0.002	0.000	0.001	0.005	0.000	0.000	0.001	0.001	0.000	0.001	0.000
665.00	0.000	0.003	0.001	0.002	0.000	0.001	0.006	0.000	0.000	0.001	0.001	0.000	0.001	0.000
666.00	0.000	0.003	0.001	0.002	0.000	0.001	0.005	0.000	0.000	0.001	0.001	0.000	0.001	0.000
667.00	-0.000	0.002	0.000	0.002	0.000	0.001	0.005	0.000	0.000	0.001	0.001	-0.000	0.000	0.000
668.00	0.000	0.003	0.001	0.002	0.000	0.001	0.005	0.000	0.000	0.001	0.001	-0.000	0.001	0.000
669.00	0.000	0.003	0.001	0.002	0.000	0.001	0.005	0.000	0.000	0.001	0.001	0.000	0.001	0.000
670.00	0.000	0.003	0.001	0.002	0.000	0.001	0.005	0.000	0.000	0.001	0.001	0.000	0.001	0.000
671.00	0.000	0.003	0.001	0.002	0.000	0.001	0.005	0.000	0.000	0.001	0.001	0.000	0.001	0.000
672.00	0.000	0.003	0.001	0.002	0.000	0.001	0.005	0.000	0.000	0.001	0.001	-0.000	0.001	0.000
673.00	0.000	0.003	0.001	0.002	0.000	0.001	0.005	0.000	0.000	0.001	0.001	-0.000	0.001	0.000
674.00	0.000	0.003	0.001	0.002	0.000	0.001	0.005	0.000	0.000	0.001	0.001	-0.000	0.001	0.000
675.00	-0.000	0.002	0.000	0.002	0.000	0.001	0.005	0.000	0.000	0.001	0.001	-0.000	0.001	0.000
676.00	0.000	0.003	0.001	0.002	0.000	0.001	0.005	0.000	0.000	0.001	0.001	-0.000	0.001	0.000
677.00	0.000	0.003	0.001	0.002	0.000	0.001	0.005	0.000	0.000	0.001	0.001	0.000	0.001	0.000
678.00	0.000	0.002	0.001	0.002	0.000	0.001	0.005	0.000	0.000	0.001	0.001	0.000	0.001	0.000
679.00	0.000	0.002	0.000	0.002	0.000	0.001	0.005	-0.000	0.000	0.001	0.001	-0.000	0.001	0.000
680.00	0.000	0.002	0.001	0.002	0.000	0.001	0.005	0.000	0.000	0.001	0.001	-0.000	0.001	0.000
681.00	0.000	0.003	0.001	0.002	0.000	0.001	0.005	0.000	0.000	0.001	0.001	-0.000	0.001	0.000
682.00	0.000	0.003	0.001	0.002	0.000	0.001	0.005	0.000	0.000	0.001	0.001	0.000	0.001	0.000
683.00	0.000	0.002	0.001	0.002	0.000	0.001	0.005	0.000	0.000	0.001	0.001	-0.000	0.001	0.000
684.00	0.000	0.002	0.000	0.002	0.000	0.001	0.005	0.000	0.000	0.001	0.001	-0.000	0.001	0.000
685.00	0.000	0.003	0.001	0.002	0.000	0.001	0.005	0.000	0.000	0.001	0.001	0.000	0.001	0.000
686.00	0.000	0.003	0.001	0.002	0.000	0.001	0.005	0.000	0.000	0.001	0.001	0.000	0.001	0.000
687.00	0.000	0.002	0.000	0.002	0.000	0.001	0.005	0.000	0.000	0.001	0.001	-0.000	0.001	0.000
688.00	0.000	0.002	0.000	0.002	0.000	0.001	0.005	0.000	0.000	0.001	0.001	-0.000	0.001	0.000
689.00	0.000	0.002	0.000	0.002	0.000	0.001	0.005	0.000	0.000	0.001	0.001	-0.000	0.001	0.000
690.00	0.000	0.002	0.000	0.002	0.000	0.001	0.005	0.000	0.000	0.001	0.001	-0.000	0.000	0.000
691.00	0.000	0.002	0.000	0.001	0.000	0.001	0.005	0.000	0.000	0.000	0.001	-0.000	0.000	0.000
692.00	0.000	0.002	0.000	0.001	0.000	0.001	0.005	0.000	0.000	0.000	0.001	-0.000	0.000	0.000
693.00	0.000	0.002	0.000	0.001	0.000	0.001	0.005	0.000	0.000	0.000	0.001	-0.000	0.000	0.000
694.00	0.000	0.002	0.000	0.002	0.000	0.001	0.005	0.000	0.000	0.000	0.001	-0.000	0.000	0.000
695.00	0.000	0.002	0.000	0.002	0.000	0.001	0.005	0.000	0.000	0.000	0.001	-0.000	0.001	0.000
696.00	0.000	0.002	0.000	0.002	0.000	0.001	0.005	0.000	0.000	0.000	0.001	-0.000	0.000	0.000
697.00	0.000	0.002	0.000	0.002	0.000	0.001	0.005	0.000	0.000	0.001	0.001	-0.000	0.000	0.000
698.00	0.000	0.002	0.000	0.001	0.000	0.001	0.005	0.000	0.000	0.000	0.001	-0.000	0.000	0.000
699.00	-0.000	0.002	0.000	0.001	0.000	0.001	0.005	0.000	0.000	0.000	0.001	-0.000	0.001	0.000
700.00	0.000	0.002	0.000	0.001	0.000	0.001	0.005	0.000	0.000	0.000	0.001	-0.000	0.001	0.000
701.00	0.000	0.002	0.000	0.002	0.000	0.001	0.005	0.000	0.000	0.000	0.001	-0.000	0.001	0.000
702.00	0.000	0.002	0.000	0.002	0.000	0.001	0.005	0.000	0.000	0.000	0.001	-0.000	0.001	0.000
703.00	0.000	0.002	0.000	0.001	0.000	0.001	0.005	0.000	0.000	0.000	0.001	-0.000	0.000	0.000
704.00	0.000	0.002	0.000	0.001	0.000	0.001	0.005	0.000	0.000	0.000	0.001	-0.000	0.000	0.000
705.00	0.000	0.002	0.000	0.002	0.000	0.001	0.005	0.000	0.000	0.000	0.001	-0.000	0.001	0.000
706.00	0.000	0.002	0.000	0.002	0.000	0.001	0.005	0.000	0.000	0.000	0.001	-0.000	0.000	0.000
707.00	0.000	0.002	0.000	0.001	0.000	0.001	0.005	0.000	0.000	0.000	0.001	-0.000	0.000	0.000
708.00	0.000	0.002	0.000	0.001	0.000	0.001	0.005	0.000	0.000	0.000	0.001	-0.000	0.000	0.000
709.00	0.000	0.002	0.000	0.001	0.000	0.001	0.005	0.000	0.000	0.000	0.001	-0.000	0.000	0.000
710.00	0.000	0.002	0.000	0.001	0.000	0.001	0.005	0.000	0.000	0.000	0.001	-0.000	0.000	0.000
711.00	0.000	0.002	0.000	0.001	0.000	0.001	0.005	0.000	0.000	0.000	0.001	-0.000	0.000	0.000
712.00	-0.000	0.002	0.000	0.001	0.000	0.001	0.005	0.000	0.000	0.000	0.001	-0.000	0.000	0.000
713.00	-0.000	0.002	0.000	0.001	0.000	0.001	0.005	0.000	0.000	0.000	0.001	-0.000	0.000	0.000
714.00	-0.000	0.002	0.000	0.001	0.000	0.001	0.005	0.000	0.000	0.000	0.001	-0.000	0.000	0.000
715.00	0.000	0.002	0.000	0.001	-0.000	0.001	0.005	-0.000	0.000	0.000	0.001	-0.000	0.000	0.000
716.00	0.000	0.002	0.000	0.001	0.000	0.001	0.005	0.000	0.000	0.000	0.001	-0.000	0.000	0.000
717.00	-0.000	0.002	0.000	0.001	0.000	0.001	0.005	-0.000	0.000	0.000	0.001	-0.000	0.000	0.000
718.00	-0.000	0.002	0.000	0.001	-0.000	0.001	0.005	-0.000	0.000	0.000	0.001	-0.000	0.000	0.000
719.00	-0.000	0.002	0.000	0.001	-0.000	0.001	0.005	-0.000	0.000	0.000	0.001	-0.000	0.000	0.000
720.00	-0.000	0.002	0.000	0.001	0.000	0.001	0.005	0.000	0.000	0.000	0.001	-0.000	0.000	0.000
721.00	-0.000	0.002	0.000	0.001	0.000	0.001	0.005	-0.000	0.000	0.000	0.001	-0.000	0.000	0.000
722.00	-0.000	0.002	0.000	0.001	0.000	0.001	0.005	-0.000	0.000	0.000	0.001	-0.000	0.000	0.000
723.00	-0.000	0.002	0.000	0.001	-0.000	0.001	0.005	-0.000	0.000	0.000	0.001	-0.000	0.000	0.000
724.00	0.000	0.002	0.000	0.001	-0.000	0.001	0.005	0.000	0.000	0.000	0.001	-0.000	0.000	0.000
725.00	0.000	0.002	0.000	0.001	0.000	0.001	0.005	0.000	0.000	0.000	0.001	-0.000	0.000	0.000
726.00	0.000	0.002	0.000	0.001	-0.000	0.001	0.005	0.000	0.000	0.000	0.001	-0.000	0.000	0.000
727.00	0.000	0.002	0.000	0.001	0.000	0.001	0.005	0.000	0.000	0.000	0.001	-0.000	0.000	0.000
728.00	0.000	0.002	0.000	0.001	0.000	0.001	0.005	0.000	0.000	0.000	0.001	-0.000	0.000	0.000
729.00	0.000	0.002	0.000	0.001	-0.000	0.001	0.004	0.000	0.000	0.000	0.001	-0.000	0.000	0.000
730.00	0.000	0.002	0.000	0.001	-0.000	0.001	0.004	-0.000	0.000	0.000	0.000	-0.000	0.000	0.000
731.00	0.000	0.002	0.000	0.001	-0.000	0.001	0.004	-0.000	0.000	0.000	0.000	-0.000	0.000	0.000
732.00	0.000	0.002	0.000	0.001	-0.000	0.001	0.004	-0.000	0.000	0.000	0.000	-0.000	0.000	0.000
733.00	0.000	0.002	0.000	0.001	-0.000	0.001	0.004	-0.000	0.000	0.000	0.001	-0.000	0.000	0.000
734.00	-0.000	0.002	0.000	0.001	-0.000	0.001	0.004	-0.000	-0.000	0.000	0.000	-0.000	0.000	0.000
735.00	-0.000	0.002	0.000	0.001	-0.000	0.001	0.004	-0.000	-0.000	0.000	0.000	-0.000	0.000	0.000
736.00	0.000	0.002	0.000	0.001	-0.000	0.001	0.004	-0.000	0.000	0.000	0.000	-0.000	0.000	0.000
737.00	0.000	0.002	0.000	0.001	-0.000	0.001	0.004	-0.000	0.000	0.000	0.000	-0.000	0.000	0.000
738.00	0.000	0.002	0.000	0.001	-0.000	0.001	0.004	-0.000	0.000	0.000	0.000	-0.000	0.000	0.000
739.00	-0.000	0.002	0.000	0.001	-0.000	0.001	0.004	-0.000	-0.000	0.000	0.000	-0.000	0.000	0.000
740.00	-0.000	0.002	0.000	0.001	-0.000	0.001	0.004	-0.000	0.000	0.000	0.000	-0.000	0.000	0.000
741.00	-0.000	0.002	0.000	0.001	-0.000	0.001	0.004	-0.000	0.000	0.000	0.000	-0.000	0.000	0.000
742.00	-0.000	0.002	0.000	0.001	-0.000	0.001	0.004	-0.000	0.000	0.000	0.000	-0.000	0.000	0.000
743.00	0.000	0.002	0.000	0.001	-0.000	0.001	0.004	-0.000	0.000	0.000	0.001	-0.000	0.000	0.000
744.00	0.000	0.002	0.000	0.001	-0.000	0.001	0.004	-0.000	0.000	0.000	0.001	-0.000	0.000	0.000
745.00	0.000	0.002	0.000	0.001	-0.000	0.001	0.004	-0.000	0.000	0.000	0.001	-0.000	0.000	0.000
746.00	-0.000	0.002	0.000	0.001	-0.000	0.001	0.004	-0.000	-0.000	0.000	0.001	-0.000	0.000	0.000
747.00	-0.000	0.002	0.000	0.001	-0.000	0.001	0.004	-0.000	-0.000	0.000	0.001	-0.000	0.000	0.000
748.00	-0.000	0.002	0.000	0.001	-0.000	0.001	0.004	-0.000	0.000	0.000	0.000	-0.000	0.000	0.000
749.00	-0.000	0.002	0.000	0.001	-0.000	0.001	0.004	-0.000	0.000	0.000	0.000	-0.000	0.000	0.000
750.00	-0.000	0.002	0.000	0.001	-0.000	0.001	0.004	-0.000	0.000	0.000	0.000	-0.000	0.000	0.000
751.00	0.000	0.002	0.000	0.001	-0.000	0.001	0.004	-0.000	0.000	0.000	0.001	-0.000	0.000	0.000
752.00	-0.000	0.002	0.000	0.001	-0.000	0.001	0.004	-0.000	0.000	0.000	0.001	-0.000	0.000	0.000
753.00	-0.000	0.002	0.000	0.001	-0.000	0.001	0.004	-0.000	0.000	0.000	0.001	-0.000	0.000	0.000
754.00	-0.000	0.002	0.000	0.001	-0.000	0.001	0.004	-0.000	0.000	0.000	0.000	-0.000	0.000	0.000
755.00	0.000	0.002	0.000	0.001	-0.000	0.001	0.004	-0.000	0.000	0.000	0.001	-0.000	0.000	0.000
756.00	0.000	0.002	0.000	0.001	-0.000	0.001	0.004	-0.000	0.000	0.000	0.001	-0.000	0.000	0.000
757.00	0.000	0.002	0.000	0.001	0.000	0.001	0.004	0.000	0.000	0.000	0.001	-0.000	0.000	0.000
758.00	-0.000	0.002	0.000	0.001	0.000	0.001	0.004	-0.000	0.000	0.000	0.001	-0.000	0.000	0.000
759.00	0.000	0.002	0.001	0.002	0.000	0.001	0.005	0.000	0.000	0.000	0.001	0.000	0.001	0.000
760.00	0.001	0.003	0.001	0.002	0.001	0.002	0.005	0.001	0.001	0.001	0.002	0.001	0.001	0.001
761.00	0.000	0.002	0.000	0.001	0.000	0.001	0.004	0.000	0.000	0.000	0.001	-0.000	0.000	0.000
762.00	-0.000	0.002	0.000	0.001	0.000	0.001	0.004	-0.000	0.000	0.000	0.001	-0.000	0.000	0.000
763.00	-0.000	0.002	0.000	0.001	0.000	0.001	0.004	-0.000	0.000	0.000	0.000	-0.000	0.000	0.000
764.00	-0.000	0.002	0.000	0.001	0.000	0.001	0.004	0.000	0.000	0.000	0.001	-0.000	0.000	0.000
765.00	-0.000	0.002	0.000	0.001	0.000	0.001	0.004	-0.000	0.000	0.000	0.001	-0.000	0.000	0.000
766.00	-0.000	0.002	0.000	0.001	-0.000	0.001	0.004	-0.000	0.000	0.000	0.001	-0.000	0.000	0.000
767.00	-0.000	0.002	0.000	0.001	-0.000	0.001	0.004	-0.000	0.000	0.000	0.001	-0.000	0.000	0.000
768.00	0.000	0.002	0.000	0.001	0.000	0.001	0.004	0.000	0.000	0.000	0.001	-0.000	0.000	0.000
769.00	-0.000	0.002	0.000	0.001	-0.000	0.001	0.004	-0.000	0.000	0.000	0.001	-0.000	0.000	0.000
770.00	-0.000	0.002	0.000	0.001	-0.000	0.001	0.004	-0.000	0.000	0.000	0.001	-0.000	0.000	0.000
771.00	-0.000	0.002	0.000	0.001	0.000	0.001	0.004	-0.000	0.000	0.000	0.001	-0.000	0.000	0.000
772.00	0.000	0.002	0.000	0.001	0.000	0.001	0.004	-0.000	0.000	0.000	0.001	-0.000	0.000	0.000
773.00	-0.000	0.002	0.000	0.001	0.000	0.001	0.004	-0.000	0.000	0.000	0.001	-0.000	0.000	0.000
774.00	-0.000	0.002	0.000	0.001	0.000	0.001	0.004	0.000	0.000	0.000	0.001	-0.000	0.000	0.000
775.00	0.000	0.002	0.000	0.001	0.000	0.001	0.004	0.000	0.000	0.000	0.001	-0.000	0.000	0.000
776.00	-0.000	0.002	0.000	0.001	0.000	0.001	0.004	-0.000	0.000	0.000	0.001	-0.000	0.000	0.000
777.00	-0.000	0.002	0.000	0.001	0.000	0.001	0.004	-0.000	0.000	0.000	0.001	-0.000	0.000	0.000
778.00	-0.000	0.002	0.000	0.001	0.000	0.001	0.004	-0.000	0.000	0.000	0.001	-0.000	0.000	0.000
779.00	-0.000	0.002	0.000	0.001	0.000	0.001	0.004	-0.000	0.000	0.000	0.001	-0.000	0.000	0.000
780.00	-0.000	0.002	0.000	0.001	0.000	0.001	0.004	0.000	0.000	0.000	0.001	-0.000	0.000	0.000
781.00	-0.000	0.002	0.000	0.001	0.000	0.001	0.004	-0.000	0.000	0.000	0.001	-0.000	0.000	0.000
782.00	-0.000	0.002	0.000	0.001	0.000	0.001	0.004	-0.000	0.000	0.000	0.001	-0.000	0.000	0.000
783.00	-0.000	0.002	0.000	0.001	0.000	0.001	0.004	-0.000	0.000	0.000	0.001	-0.000	0.000	0.000
784.00	-0.000	0.002	0.000	0.001	0.000	0.001	0.004	-0.000	0.000	0.000	0.001	-0.000	0.000	0.000
785.00	-0.000	0.002	0.000	0.001	0.000	0.001	0.004	-0.000	0.000	0.000	0.001	-0.000	0.000	0.000
786.00	-0.000	0.002	0.000	0.001	0.000	0.001	0.004	-0.000	0.000	0.000	0.001	-0.000	0.000	0.000
787.00	-0.000	0.002	0.000	0.001	0.000	0.001	0.004	-0.000	0.000	0.000	0.001	-0.000	0.000	0.000
788.00	-0.000	0.002	0.000	0.001	0.000	0.001	0.004	-0.000	0.000	0.000	0.001	-0.000	0.000	0.000
789.00	-0.000	0.002	0.000	0.001	0.000	0.001	0.004	0.000	0.000	0.000	0.001	-0.000	0.000	0.000
790.00	-0.000	0.002	0.000	0.001	0.000	0.001	0.004	-0.000	0.000	0.000	0.001	-0.000	0.000	0.000
791.00	-0.000	0.002	0.000	0.001	0.000	0.001	0.004	-0.000	0.000	0.000	0.001	-0.000	0.000	0.000
792.00	-0.000	0.002	0.000	0.001	0.000	0.001	0.004	-0.000	0.000	0.000	0.001	-0.000	0.000	0.000
793.00	-0.000	0.002	0.000	0.001	0.000	0.001	0.004	-0.000	0.000	0.000	0.001	-0.000	0.000	0.000
794.00	-0.000	0.002	0.000	0.001	0.000	0.001	0.004	-0.000	0.000	0.000	0.001	-0.000	0.000	0.000
795.00	-0.000	0.002	0.000	0.001	0.000	0.001	0.004	-0.000	0.000	0.000	0.001	-0.000	0.000	0.000
796.00	-0.000	0.002	0.000	0.001	0.000	0.001	0.004	-0.000	0.000	0.000	0.001	-0.000	0.000	0.000
797.00	-0.000	0.002	0.000	0.001	0.000	0.001	0.004	-0.000	0.000	0.000	0.001	-0.000	0.000	0.000
798.00	-0.000	0.002	0.000	0.001	0.000	0.001	0.004	-0.000	0.000	0.000	0.001	-0.000	0.000	0.000
799.00	-0.000	0.002	0.000	0.001	0.000	0.001	0.004	-0.000	0.000	0.000	0.001	-0.000	0.000	0.000
800.00	-0.000	0.002	0.000	0.001	0.000	0.001	0.004	-0.000	0.000	0.000	0.001	-0.000	0.000	0.000
801.00	-0.000	0.002	0.000	0.001	0.000	0.001	0.004	-0.000	0.000	0.000	0.001	-0.000	0.000	0.000
802.00	-0.000	0.002	0.000	0.001	0.000	0.001	0.004	-0.000	0.000	0.000	0.001	-0.000	0.000	0.000
803.00	-0.000	0.002	0.000	0.001	0.000	0.001	0.004	-0.000	0.000	0.000	0.001	-0.000	0.000	0.000
804.00	-0.000	0.002	0.000	0.001	0.000	0.001	0.004	-0.000	0.000	0.000	0.001	-0.000	0.000	0.000
805.00	-0.000	0.002	0.000	0.001	0.000	0.001	0.004	0.000	0.000	0.000	0.001	-0.000	0.000	0.000
806.00	-0.000	0.002	0.000	0.001	0.000	0.001	0.004	-0.000	0.000	0.000	0.001	-0.000	0.000	0.000
807.00	-0.000	0.002	0.000	0.001	0.000	0.001	0.004	-0.000	0.000	0.000	0.001	-0.000	0.000	0.000
808.00	0.000	0.002	0.000	0.001	0.000	0.001	0.004	0.000	0.000	0.000	0.001	-0.000	0.000	0.000
809.00	-0.000	0.002	0.000	0.001	0.000	0.001	0.004	-0.000	0.000	0.000	0.001	-0.000	0.000	0.000
810.00	-0.000	0.002	0.000	0.001	0.000	0.001	0.004	0.000	0.000	0.000	0.001	-0.000	0.000	0.000
811.00	-0.000	0.002	0.000	0.001	0.000	0.001	0.004	0.000	0.000	0.000	0.001	-0.000	0.000	0.000
812.00	-0.000	0.002	0.000	0.001	0.000	0.001	0.004	-0.000	0.000	0.000	0.001	-0.000	0.000	0.000
813.00	-0.000	0.002	0.000	0.001	0.000	0.001	0.004	0.000	0.000	0.000	0.001	0.000	0.000	0.000
814.00	-0.000	0.002	0.000	0.001	0.000	0.001	0.004	-0.000	0.000	0.000	0.001	-0.000	0.000	0.000
815.00	-0.000	0.002	0.000	0.001	0.000	0.001	0.004	0.000	0.000	0.000	0.001	-0.000	0.000	0.000
816.00	-0.000	0.002	0.000	0.001	0.000	0.001	0.004	0.000	0.000	0.000	0.001	-0.000	0.000	0.000
817.00	0.000	0.002	0.000	0.001	0.000	0.001	0.004	0.000	0.000	0.000	0.001	-0.000	0.000	0.000
818.00	-0.000	0.002	0.000	0.001	0.000	0.001	0.004	0.000	0.000	0.000	0.001	-0.000	0.000	0.000
819.00	0.000	0.002	0.000	0.001	0.000	0.001	0.004	0.000	0.000	0.000	0.001	-0.000	0.000	0.000
820.00	-0.000	0.002	0.000	0.001	0.000	0.001	0.004	-0.000	0.000	0.000	0.001	-0.000	0.000	0.000
821.00	-0.000	0.002	0.000	0.001	0.000	0.001	0.004	-0.000	0.000	0.000	0.001	-0.000	0.000	0.000
822.00	-0.000	0.002	0.000	0.001	0.000	0.001	0.004	0.000	0.000	0.000	0.001	-0.000	0.000	0.000
823.00	-0.000	0.002	0.000	0.001	0.000	0.001	0.004	-0.000	0.000	0.000	0.001	-0.000	0.000	0.000
824.00	-0.000	0.002	0.000	0.001	0.000	0.001	0.004	-0.000	0.000	0.000	0.001	-0.000	0.000	0.000
825.00	0.000	0.002	0.000	0.001	0.000	0.001	0.004	-0.000	0.000	0.000	0.001	-0.000	0.000	0.000
826.00	0.000	0.002	0.000	0.001	0.000	0.001	0.004	-0.000	0.000	0.000	0.001	-0.000	0.000	0.000
827.00	0.000	0.002	0.000	0.001	0.000	0.001	0.004	-0.000	0.000	0.000	0.001	-0.000	0.000	0.000
828.00	0.000	0.002	0.000	0.001	-0.000	0.001	0.004	-0.000	0.000	0.000	0.001	-0.000	0.000	0.000
829.00	-0.000	0.002	0.000	0.001	-0.000	0.001	0.004	-0.000	0.000	0.000	0.000	-0.000	0.000	0.000
830.00	0.000	0.002	0.000	0.001	0.000	0.001	0.004	-0.000	0.000	0.000	0.000	-0.000	0.000	0.000
831.00	0.000	0.002	0.000	0.001	0.000	0.001	0.004	-0.000	0.000	0.000	0.000	-0.000	0.000	0.000
832.00	0.000	0.002	0.000	0.001	-0.000	0.001	0.004	-0.000	-0.000	0.000	0.000	-0.000	0.000	0.000
833.00	0.000	0.002	0.000	0.001	-0.000	0.001	0.004	-0.000	-0.000	0.000	0.000	-0.000	0.000	0.000
834.00	0.000	0.002	0.000	0.001	-0.000	0.001	0.004	-0.000	0.000	0.000	0.000	-0.000	0.000	0.000
835.00	0.000	0.002	0.000	0.001	-0.000	0.001	0.004	-0.000	0.000	0.000	0.000	-0.000	0.000	0.000
836.00	0.000	0.002	0.000	0.001	-0.000	0.001	0.004	-0.000	-0.000	0.000	0.000	-0.000	0.000	0.000
837.00	0.000	0.002	0.000	0.001	-0.000	0.001	0.004	-0.000	-0.000	0.000	0.000	-0.000	0.000	0.000
838.00	0.000	0.002	0.000	0.001	-0.000	0.001	0.004	-0.000	-0.000	0.000	0.000	-0.000	0.000	0.000
839.00	0.000	0.002	0.000	0.001	-0.000	0.001	0.004	-0.000	-0.000	0.000	0.000	-0.000	0.000	0.000
840.00	0.000	0.002	0.000	0.001	-0.000	0.001	0.004	-0.000	-0.000	0.000	0.000	-0.000	0.000	0.000
841.00	0.000	0.002	0.000	0.001	-0.000	0.001	0.004	-0.000	-0.000	0.000	0.000	-0.000	0.000	0.000
842.00	0.000	0.002	0.000	0.001	-0.000	0.001	0.004	-0.000	0.000	0.000	0.000	-0.000	0.000	0.000
843.00	-0.000	0.001	0.000	0.001	-0.000	0.001	0.004	-0.000	-0.000	0.000	0.000	-0.000	0.000	0.000
844.00	0.000	0.002	0.000	0.001	-0.000	0.001	0.004	-0.000	-0.000	0.000	0.000	-0.000	0.000	0.000
845.00	0.000	0.002	0.000	0.001	-0.000	0.001	0.004	-0.000	-0.000	0.000	0.000	-0.000	0.000	0.000
846.00	0.000	0.002	0.000	0.001	-0.000	0.001	0.004	-0.000	-0.000	0.000	0.000	-0.000	-0.000	0.000
847.00	-0.000	0.002	0.000	0.001	-0.000	0.001	0.003	-0.000	-0.000	0.000	0.000	-0.000	0.000	0.000
848.00	0.000	0.002	0.000	0.001	-0.000	0.001	0.004	-0.000	-0.000	0.000	0.000	-0.000	0.000	0.000
849.00	0.000	0.002	0.000	0.001	-0.000	0.001	0.004	-0.000	-0.000	0.000	0.000	-0.000	0.000	0.000
850.00	-0.000	0.002	0.000	0.001	-0.000	0.001	0.003	-0.000	-0.000	0.000	0.000	-0.000	0.000	0.000
