Wavelength nm.	RawData ...	RawData ...	RawData ...	RawData ...	RawData ...	RawData ...	RawData ...	RawData ...	RawData ...	RawData ...	RawData ...	RawData ...	RawData ...	RawData ...	RawData ...
190.00	0.001	0.457	0.458	0.406	0.482	0.440	0.388	0.403	0.435	0.402	0.472	0.412	0.387	0.397	0.386
191.00	-0.002	0.420	0.417	0.368	0.432	0.404	0.356	0.386	0.392	0.363	0.430	0.373	0.355	0.359	0.357
192.00	-0.001	0.386	0.382	0.334	0.385	0.370	0.324	0.371	0.347	0.332	0.391	0.339	0.320	0.324	0.334
193.00	-0.002	0.349	0.344	0.297	0.338	0.332	0.290	0.356	0.306	0.299	0.350	0.304	0.286	0.288	0.309
194.00	-0.003	0.321	0.316	0.271	0.303	0.303	0.263	0.345	0.274	0.275	0.319	0.277	0.260	0.261	0.291
195.00	-0.003	0.294	0.288	0.244	0.271	0.277	0.239	0.334	0.246	0.251	0.291	0.252	0.236	0.236	0.275
196.00	-0.003	0.272	0.265	0.222	0.246	0.255	0.217	0.325	0.223	0.230	0.268	0.231	0.214	0.215	0.263
197.00	-0.002	0.253	0.245	0.203	0.225	0.236	0.199	0.318	0.205	0.212	0.248	0.213	0.196	0.197	0.253
198.00	-0.003	0.236	0.227	0.187	0.207	0.220	0.183	0.310	0.189	0.196	0.232	0.196	0.180	0.181	0.242
199.00	-0.002	0.221	0.213	0.173	0.191	0.207	0.169	0.304	0.176	0.182	0.218	0.183	0.166	0.169	0.234
200.00	-0.002	0.209	0.200	0.161	0.179	0.195	0.157	0.298	0.164	0.170	0.207	0.171	0.156	0.158	0.227
201.00	-0.002	0.197	0.189	0.150	0.168	0.185	0.147	0.293	0.153	0.160	0.197	0.160	0.146	0.148	0.221
202.00	-0.001	0.187	0.180	0.140	0.159	0.176	0.138	0.288	0.145	0.151	0.188	0.151	0.137	0.139	0.216
203.00	-0.001	0.179	0.171	0.132	0.151	0.169	0.131	0.282	0.138	0.143	0.181	0.144	0.130	0.133	0.211
204.00	-0.001	0.171	0.164	0.125	0.144	0.162	0.124	0.277	0.131	0.136	0.174	0.137	0.123	0.126	0.206
205.00	-0.001	0.164	0.157	0.119	0.138	0.156	0.118	0.271	0.126	0.129	0.167	0.131	0.117	0.120	0.202
206.00	-0.001	0.159	0.151	0.114	0.133	0.150	0.113	0.265	0.121	0.124	0.162	0.126	0.112	0.116	0.198
207.00	-0.001	0.154	0.146	0.109	0.128	0.146	0.109	0.259	0.117	0.119	0.157	0.121	0.108	0.111	0.194
208.00	-0.001	0.149	0.141	0.105	0.124	0.142	0.105	0.252	0.113	0.114	0.152	0.117	0.104	0.108	0.190
209.00	-0.001	0.144	0.136	0.101	0.120	0.138	0.101	0.245	0.109	0.110	0.147	0.113	0.100	0.104	0.185
210.00	-0.001	0.141	0.132	0.098	0.117	0.134	0.097	0.238	0.106	0.106	0.142	0.109	0.097	0.101	0.181
211.00	-0.001	0.137	0.128	0.095	0.114	0.131	0.094	0.231	0.103	0.103	0.137	0.106	0.094	0.098	0.177
212.00	-0.001	0.133	0.124	0.092	0.111	0.128	0.091	0.222	0.101	0.100	0.133	0.103	0.092	0.095	0.173
213.00	-0.001	0.130	0.119	0.090	0.108	0.124	0.088	0.214	0.098	0.096	0.127	0.100	0.089	0.093	0.169
214.00	-0.001	0.127	0.116	0.087	0.106	0.122	0.086	0.205	0.096	0.093	0.123	0.098	0.086	0.090	0.165
215.00	-0.001	0.124	0.112	0.085	0.103	0.119	0.083	0.196	0.093	0.090	0.118	0.095	0.084	0.088	0.162
216.00	-0.001	0.121	0.108	0.082	0.101	0.116	0.081	0.188	0.091	0.088	0.113	0.093	0.082	0.086	0.158
217.00	-0.002	0.118	0.105	0.080	0.099	0.114	0.079	0.179	0.089	0.085	0.109	0.090	0.079	0.084	0.154
218.00	-0.002	0.116	0.102	0.078	0.097	0.112	0.077	0.172	0.087	0.083	0.105	0.088	0.078	0.082	0.151
219.00	-0.001	0.114	0.098	0.076	0.095	0.109	0.075	0.164	0.085	0.081	0.101	0.086	0.076	0.080	0.148
220.00	-0.002	0.112	0.096	0.075	0.093	0.107	0.073	0.157	0.084	0.079	0.096	0.085	0.074	0.078	0.145
221.00	-0.001	0.110	0.093	0.073	0.092	0.106	0.072	0.150	0.082	0.078	0.093	0.083	0.073	0.077	0.142
222.00	-0.002	0.108	0.091	0.072	0.090	0.104	0.070	0.144	0.081	0.076	0.090	0.081	0.071	0.075	0.140
223.00	-0.001	0.106	0.088	0.070	0.089	0.102	0.069	0.137	0.079	0.074	0.086	0.080	0.070	0.074	0.137
224.00	-0.001	0.104	0.086	0.069	0.087	0.101	0.068	0.132	0.078	0.073	0.083	0.078	0.068	0.072	0.135
225.00	-0.001	0.102	0.084	0.068	0.085	0.099	0.066	0.126	0.076	0.071	0.080	0.076	0.067	0.071	0.132
226.00	-0.001	0.100	0.081	0.066	0.084	0.097	0.065	0.121	0.075	0.069	0.077	0.075	0.065	0.069	0.130
227.00	-0.002	0.098	0.079	0.065	0.082	0.096	0.064	0.116	0.074	0.068	0.075	0.074	0.064	0.068	0.128
228.00	-0.001	0.097	0.078	0.064	0.081	0.094	0.062	0.112	0.072	0.067	0.072	0.072	0.063	0.067	0.126
229.00	-0.001	0.095	0.076	0.063	0.080	0.093	0.061	0.108	0.071	0.065	0.070	0.071	0.062	0.066	0.123
230.00	-0.001	0.093	0.074	0.061	0.078	0.091	0.060	0.105	0.070	0.064	0.068	0.070	0.061	0.064	0.121
231.00	-0.001	0.092	0.073	0.060	0.077	0.090	0.059	0.101	0.069	0.063	0.066	0.069	0.060	0.063	0.119
232.00	-0.001	0.090	0.071	0.059	0.076	0.089	0.058	0.099	0.068	0.061	0.065	0.068	0.059	0.062	0.117
233.00	-0.001	0.089	0.070	0.058	0.075	0.087	0.057	0.096	0.067	0.060	0.063	0.067	0.058	0.061	0.116
234.00	-0.001	0.088	0.068	0.057	0.074	0.086	0.057	0.094	0.066	0.059	0.062	0.066	0.057	0.060	0.114
235.00	-0.001	0.086	0.067	0.056	0.073	0.085	0.056	0.091	0.065	0.058	0.061	0.065	0.056	0.059	0.112
236.00	-0.001	0.085	0.066	0.055	0.072	0.084	0.055	0.089	0.064	0.057	0.059	0.064	0.055	0.058	0.110
237.00	-0.001	0.084	0.065	0.054	0.071	0.082	0.054	0.087	0.063	0.056	0.058	0.063	0.054	0.057	0.109
238.00	-0.001	0.083	0.064	0.054	0.070	0.081	0.053	0.086	0.062	0.055	0.057	0.062	0.053	0.057	0.107
239.00	-0.001	0.082	0.063	0.053	0.069	0.080	0.053	0.084	0.061	0.055	0.056	0.061	0.053	0.056	0.105
240.00	-0.001	0.081	0.062	0.052	0.068	0.079	0.052	0.083	0.061	0.054	0.055	0.060	0.052	0.055	0.104
241.00	-0.001	0.080	0.061	0.052	0.067	0.078	0.051	0.082	0.060	0.053	0.054	0.060	0.051	0.054	0.103
242.00	-0.001	0.079	0.060	0.051	0.067	0.077	0.051	0.080	0.059	0.052	0.054	0.059	0.051	0.054	0.101
243.00	-0.001	0.078	0.059	0.051	0.066	0.077	0.050	0.079	0.059	0.052	0.053	0.058	0.050	0.053	0.100
244.00	-0.001	0.077	0.059	0.050	0.065	0.076	0.050	0.078	0.058	0.051	0.052	0.058	0.050	0.053	0.099
245.00	-0.001	0.076	0.058	0.049	0.065	0.075	0.049	0.077	0.058	0.051	0.052	0.057	0.049	0.052	0.098
246.00	-0.001	0.076	0.057	0.049	0.064	0.075	0.049	0.076	0.057	0.050	0.051	0.057	0.049	0.052	0.096
247.00	-0.001	0.075	0.057	0.049	0.063	0.074	0.048	0.075	0.056	0.049	0.050	0.056	0.048	0.051	0.095
248.00	-0.001	0.074	0.056	0.048	0.063	0.073	0.048	0.074	0.056	0.049	0.050	0.056	0.048	0.051	0.094
249.00	-0.001	0.074	0.055	0.048	0.062	0.073	0.047	0.074	0.056	0.049	0.049	0.055	0.048	0.050	0.093
250.00	-0.001	0.073	0.055	0.048	0.062	0.072	0.047	0.073	0.055	0.048	0.049	0.055	0.047	0.050	0.093
251.00	-0.001	0.073	0.055	0.047	0.061	0.072	0.047	0.073	0.055	0.048	0.048	0.055	0.047	0.050	0.092
252.00	-0.001	0.072	0.054	0.047	0.061	0.071	0.046	0.072	0.054	0.048	0.048	0.055	0.047	0.049	0.091
253.00	-0.001	0.072	0.054	0.047	0.060	0.071	0.046	0.071	0.054	0.047	0.047	0.054	0.047	0.049	0.090
254.00	-0.001	0.072	0.053	0.046	0.060	0.070	0.046	0.070	0.054	0.047	0.047	0.054	0.046	0.049	0.090
255.00	-0.001	0.071	0.053	0.046	0.059	0.070	0.045	0.070	0.053	0.047	0.046	0.053	0.046	0.048	0.089
256.00	-0.001	0.071	0.052	0.046	0.059	0.069	0.045	0.069	0.053	0.046	0.046	0.053	0.045	0.048	0.088
257.00	-0.001	0.070	0.052	0.045	0.059	0.069	0.045	0.069	0.053	0.046	0.046	0.053	0.045	0.047	0.087
258.00	-0.001	0.070	0.051	0.045	0.058	0.068	0.044	0.068	0.052	0.046	0.045	0.052	0.045	0.047	0.087
259.00	-0.001	0.069	0.051	0.045	0.058	0.068	0.044	0.068	0.052	0.045	0.045	0.052	0.045	0.047	0.086
260.00	-0.001	0.069	0.051	0.044	0.057	0.067	0.043	0.067	0.051	0.045	0.044	0.052	0.044	0.046	0.085
261.00	-0.001	0.068	0.050	0.044	0.057	0.067	0.043	0.067	0.051	0.044	0.044	0.051	0.044	0.046	0.085
262.00	-0.001	0.068	0.050	0.043	0.056	0.066	0.043	0.066	0.051	0.044	0.043	0.051	0.043	0.046	0.084
263.00	-0.001	0.067	0.049	0.043	0.056	0.066	0.042	0.066	0.050	0.044	0.043	0.050	0.043	0.045	0.083
264.00	-0.001	0.066	0.049	0.042	0.055	0.065	0.042	0.065	0.050	0.043	0.042	0.050	0.042	0.044	0.082
265.00	-0.001	0.066	0.048	0.042	0.055	0.064	0.041	0.065	0.049	0.043	0.042	0.049	0.042	0.044	0.081
266.00	-0.001	0.065	0.048	0.041	0.054	0.063	0.041	0.064	0.048	0.042	0.041	0.049	0.041	0.043	0.081
267.00	-0.001	0.064	0.047	0.041	0.053	0.063	0.040	0.063	0.048	0.042	0.041	0.048	0.041	0.043	0.079
268.00	-0.001	0.063	0.047	0.040	0.053	0.062	0.039	0.063	0.047	0.041	0.040	0.047	0.040	0.042	0.078
269.00	-0.001	0.063	0.046	0.039	0.052	0.061	0.039	0.062	0.047	0.041	0.040	0.047	0.040	0.042	0.078
270.00	-0.001	0.062	0.046	0.039	0.052	0.060	0.038	0.062	0.046	0.040	0.039	0.046	0.039	0.041	0.077
271.00	-0.001	0.061	0.045	0.038	0.051	0.059	0.038	0.061	0.045	0.039	0.039	0.045	0.038	0.040	0.076
272.00	-0.001	0.060	0.044	0.037	0.050	0.059	0.037	0.060	0.045	0.039	0.038	0.044	0.037	0.039	0.075
273.00	-0.001	0.059	0.044	0.037	0.050	0.058	0.036	0.060	0.044	0.038	0.037	0.044	0.037	0.039	0.074
274.00	-0.001	0.059	0.043	0.036	0.049	0.057	0.036	0.059	0.043	0.038	0.037	0.043	0.036	0.038	0.073
275.00	-0.001	0.058	0.042	0.035	0.048	0.056	0.035	0.058	0.042	0.037	0.036	0.042	0.035	0.037	0.072
276.00	-0.001	0.057	0.042	0.035	0.048	0.055	0.034	0.058	0.042	0.036	0.036	0.041	0.035	0.037	0.071
277.00	-0.001	0.056	0.041	0.034	0.047	0.054	0.033	0.057	0.041	0.035	0.035	0.041	0.034	0.036	0.070
278.00	-0.001	0.055	0.041	0.033	0.046	0.053	0.033	0.057	0.040	0.035	0.034	0.040	0.033	0.035	0.069
279.00	-0.001	0.054	0.040	0.032	0.046	0.053	0.032	0.056	0.039	0.034	0.034	0.039	0.032	0.035	0.068
280.00	-0.001	0.053	0.039	0.032	0.045	0.052	0.031	0.056	0.039	0.033	0.033	0.038	0.032	0.034	0.068
281.00	-0.001	0.052	0.039	0.031	0.044	0.051	0.030	0.055	0.038	0.033	0.033	0.037	0.031	0.033	0.067
282.00	-0.001	0.051	0.038	0.030	0.044	0.050	0.030	0.054	0.037	0.032	0.032	0.036	0.030	0.032	0.066
283.00	-0.001	0.050	0.037	0.030	0.043	0.049	0.029	0.053	0.036	0.031	0.031	0.036	0.029	0.031	0.065
284.00	-0.001	0.049	0.037	0.029	0.042	0.048	0.028	0.053	0.036	0.030	0.031	0.035	0.029	0.031	0.064
285.00	-0.001	0.048	0.036	0.028	0.042	0.047	0.028	0.052	0.035	0.029	0.030	0.034	0.028	0.030	0.063
286.00	-0.001	0.047	0.036	0.027	0.041	0.046	0.027	0.051	0.034	0.029	0.030	0.034	0.027	0.029	0.062
287.00	-0.001	0.046	0.035	0.027	0.040	0.045	0.026	0.050	0.034	0.028	0.029	0.033	0.027	0.029	0.061
288.00	-0.001	0.045	0.034	0.026	0.039	0.044	0.025	0.050	0.033	0.027	0.028	0.032	0.026	0.028	0.060
289.00	-0.001	0.045	0.034	0.025	0.039	0.044	0.025	0.049	0.032	0.026	0.028	0.031	0.025	0.027	0.059
290.00	-0.001	0.043	0.033	0.025	0.038	0.043	0.024	0.048	0.032	0.026	0.027	0.030	0.025	0.026	0.058
291.00	-0.001	0.043	0.032	0.024	0.037	0.042	0.023	0.048	0.031	0.025	0.027	0.030	0.024	0.026	0.057
292.00	-0.001	0.042	0.032	0.023	0.037	0.041	0.023	0.047	0.030	0.024	0.026	0.029	0.023	0.025	0.056
293.00	-0.001	0.041	0.031	0.023	0.036	0.040	0.022	0.046	0.030	0.024	0.026	0.028	0.023	0.024	0.055
294.00	-0.001	0.040	0.030	0.022	0.035	0.040	0.022	0.045	0.029	0.023	0.025	0.028	0.022	0.024	0.054
295.00	-0.001	0.040	0.030	0.022	0.035	0.039	0.021	0.045	0.028	0.022	0.025	0.027	0.022	0.023	0.053
296.00	-0.001	0.039	0.029	0.021	0.034	0.038	0.021	0.044	0.028	0.022	0.024	0.026	0.021	0.023	0.052
297.00	-0.001	0.038	0.029	0.021	0.034	0.038	0.020	0.044	0.027	0.021	0.024	0.026	0.020	0.022	0.052
298.00	-0.001	0.038	0.028	0.020	0.033	0.037	0.020	0.043	0.027	0.021	0.023	0.025	0.020	0.022	0.051
299.00	-0.001	0.037	0.028	0.019	0.033	0.036	0.019	0.042	0.026	0.020	0.022	0.025	0.019	0.021	0.050
300.00	-0.001	0.036	0.027	0.019	0.032	0.036	0.019	0.042	0.026	0.019	0.022	0.024	0.019	0.021	0.049
301.00	-0.001	0.035	0.027	0.019	0.032	0.035	0.018	0.041	0.025	0.019	0.022	0.024	0.019	0.021	0.049
302.00	-0.001	0.035	0.026	0.018	0.031	0.035	0.018	0.040	0.025	0.018	0.021	0.023	0.018	0.020	0.048
303.00	-0.001	0.034	0.025	0.018	0.031	0.034	0.017	0.040	0.024	0.018	0.021	0.023	0.018	0.020	0.047
304.00	-0.001	0.034	0.025	0.017	0.030	0.034	0.017	0.039	0.024	0.017	0.020	0.022	0.017	0.019	0.046
305.00	-0.001	0.033	0.025	0.017	0.030	0.033	0.017	0.039	0.024	0.017	0.020	0.022	0.017	0.019	0.046
306.00	-0.001	0.032	0.024	0.017	0.030	0.033	0.016	0.038	0.023	0.017	0.020	0.022	0.017	0.019	0.045
307.00	-0.001	0.032	0.024	0.016	0.029	0.032	0.016	0.038	0.023	0.016	0.019	0.021	0.016	0.018	0.044
308.00	-0.001	0.031	0.024	0.016	0.029	0.032	0.016	0.037	0.022	0.016	0.019	0.021	0.016	0.018	0.044
309.00	-0.000	0.031	0.023	0.015	0.028	0.031	0.015	0.036	0.022	0.016	0.018	0.020	0.016	0.018	0.043
310.00	-0.001	0.030	0.023	0.015	0.028	0.031	0.015	0.036	0.021	0.015	0.018	0.020	0.015	0.017	0.042
311.00	-0.001	0.030	0.022	0.015	0.028	0.030	0.015	0.035	0.021	0.015	0.017	0.020	0.015	0.017	0.042
312.00	-0.001	0.030	0.022	0.015	0.028	0.030	0.014	0.035	0.021	0.015	0.017	0.019	0.015	0.017	0.041
313.00	-0.001	0.029	0.022	0.014	0.027	0.030	0.014	0.034	0.021	0.014	0.017	0.019	0.014	0.016	0.040
314.00	-0.000	0.029	0.021	0.014	0.027	0.029	0.014	0.034	0.020	0.014	0.017	0.019	0.014	0.016	0.040
315.00	-0.001	0.028	0.021	0.014	0.026	0.029	0.013	0.033	0.020	0.013	0.016	0.018	0.014	0.016	0.039
316.00	-0.001	0.027	0.020	0.014	0.026	0.028	0.013	0.033	0.019	0.013	0.016	0.018	0.014	0.016	0.039
317.00	-0.001	0.027	0.020	0.014	0.026	0.028	0.013	0.032	0.019	0.013	0.016	0.018	0.013	0.015	0.038
318.00	-0.001	0.027	0.020	0.013	0.025	0.027	0.013	0.032	0.019	0.012	0.015	0.017	0.013	0.015	0.038
319.00	-0.001	0.026	0.019	0.013	0.025	0.027	0.012	0.031	0.019	0.012	0.015	0.017	0.012	0.014	0.037
320.00	-0.001	0.026	0.019	0.013	0.025	0.027	0.012	0.031	0.018	0.012	0.015	0.017	0.012	0.014	0.036
321.00	-0.001	0.026	0.019	0.013	0.024	0.027	0.012	0.030	0.018	0.012	0.015	0.017	0.012	0.014	0.036
322.00	-0.001	0.025	0.019	0.012	0.024	0.026	0.012	0.030	0.018	0.011	0.014	0.016	0.012	0.014	0.036
323.00	-0.001	0.025	0.018	0.012	0.024	0.026	0.011	0.030	0.018	0.011	0.014	0.016	0.012	0.014	0.035
324.00	-0.001	0.025	0.018	0.012	0.024	0.026	0.011	0.030	0.018	0.011	0.014	0.016	0.012	0.014	0.035
325.00	-0.001	0.024	0.018	0.011	0.024	0.025	0.011	0.029	0.017	0.011	0.014	0.016	0.011	0.014	0.034
326.00	-0.001	0.024	0.018	0.011	0.023	0.025	0.011	0.029	0.017	0.011	0.013	0.015	0.011	0.013	0.034
327.00	-0.001	0.024	0.017	0.011	0.023	0.025	0.011	0.029	0.017	0.010	0.013	0.015	0.011	0.013	0.033
328.00	-0.001	0.023	0.017	0.011	0.023	0.024	0.010	0.028	0.017	0.010	0.013	0.015	0.011	0.013	0.033
329.00	-0.000	0.023	0.017	0.011	0.023	0.024	0.010	0.028	0.017	0.010	0.013	0.015	0.011	0.013	0.033
330.00	-0.000	0.023	0.017	0.011	0.023	0.024	0.010	0.027	0.016	0.010	0.013	0.015	0.011	0.013	0.032
331.00	-0.001	0.022	0.016	0.011	0.022	0.023	0.010	0.027	0.016	0.010	0.012	0.014	0.010	0.012	0.032
332.00	-0.001	0.022	0.016	0.010	0.022	0.023	0.010	0.026	0.016	0.010	0.012	0.014	0.010	0.012	0.031
333.00	-0.000	0.022	0.016	0.010	0.022	0.023	0.009	0.026	0.016	0.009	0.012	0.014	0.010	0.012	0.031
334.00	-0.001	0.021	0.016	0.010	0.021	0.023	0.009	0.025	0.015	0.009	0.012	0.013	0.010	0.012	0.030
335.00	-0.001	0.021	0.015	0.010	0.021	0.022	0.009	0.025	0.015	0.009	0.012	0.013	0.010	0.011	0.029
336.00	-0.000	0.021	0.015	0.010	0.021	0.022	0.009	0.025	0.015	0.009	0.011	0.013	0.009	0.011	0.029
337.00	-0.001	0.020	0.015	0.009	0.020	0.022	0.009	0.025	0.014	0.009	0.011	0.013	0.009	0.011	0.029
338.00	-0.001	0.020	0.015	0.009	0.020	0.021	0.008	0.024	0.014	0.009	0.011	0.012	0.009	0.011	0.028
339.00	-0.001	0.020	0.015	0.010	0.020	0.021	0.009	0.024	0.014	0.009	0.011	0.013	0.009	0.011	0.028
340.00	0.000	0.021	0.016	0.010	0.021	0.022	0.010	0.025	0.015	0.010	0.012	0.013	0.010	0.012	0.029
341.00	-0.000	0.020	0.015	0.009	0.020	0.021	0.009	0.023	0.014	0.009	0.011	0.013	0.009	0.011	0.028
342.00	-0.001	0.019	0.014	0.009	0.019	0.021	0.008	0.023	0.014	0.008	0.010	0.012	0.008	0.010	0.027
343.00	-0.001	0.019	0.014	0.008	0.019	0.020	0.008	0.023	0.014	0.008	0.010	0.012	0.008	0.010	0.026
344.00	-0.001	0.019	0.014	0.008	0.019	0.020	0.008	0.022	0.013	0.008	0.010	0.011	0.008	0.010	0.026
345.00	-0.000	0.018	0.014	0.008	0.019	0.020	0.008	0.022	0.013	0.008	0.009	0.011	0.008	0.010	0.026
346.00	-0.001	0.018	0.013	0.008	0.019	0.019	0.007	0.022	0.013	0.007	0.009	0.011	0.008	0.009	0.025
347.00	-0.000	0.018	0.013	0.008	0.019	0.019	0.007	0.022	0.013	0.008	0.009	0.011	0.008	0.010	0.025
348.00	-0.000	0.017	0.013	0.008	0.018	0.019	0.007	0.021	0.013	0.007	0.009	0.011	0.007	0.009	0.025
349.00	-0.001	0.017	0.013	0.008	0.018	0.018	0.007	0.021	0.013	0.007	0.009	0.011	0.007	0.009	0.024
350.00	-0.001	0.017	0.012	0.007	0.018	0.018	0.007	0.020	0.012	0.007	0.009	0.010	0.007	0.009	0.024
351.00	-0.001	0.017	0.013	0.008	0.018	0.018	0.007	0.020	0.012	0.007	0.009	0.011	0.008	0.009	0.024
352.00	-0.000	0.017	0.012	0.007	0.018	0.018	0.007	0.020	0.012	0.007	0.008	0.011	0.007	0.009	0.023
353.00	-0.000	0.016	0.012	0.007	0.017	0.018	0.007	0.020	0.012	0.007	0.009	0.010	0.007	0.009	0.023
354.00	-0.001	0.016	0.012	0.007	0.017	0.018	0.007	0.019	0.012	0.006	0.008	0.010	0.007	0.008	0.023
355.00	-0.001	0.016	0.012	0.007	0.017	0.017	0.006	0.019	0.012	0.006	0.008	0.010	0.007	0.008	0.022
356.00	-0.001	0.016	0.011	0.007	0.017	0.017	0.006	0.019	0.011	0.006	0.008	0.010	0.007	0.008	0.022
357.00	-0.001	0.015	0.011	0.007	0.017	0.017	0.006	0.018	0.011	0.006	0.008	0.009	0.006	0.008	0.021
358.00	-0.001	0.015	0.011	0.007	0.016	0.016	0.006	0.018	0.011	0.005	0.007	0.009	0.006	0.008	0.021
359.00	-0.001	0.015	0.011	0.007	0.016	0.016	0.006	0.018	0.011	0.006	0.007	0.009	0.006	0.008	0.021
360.00	-0.000	0.015	0.011	0.006	0.016	0.017	0.006	0.018	0.011	0.006	0.007	0.009	0.006	0.008	0.021
361.00	-0.001	0.015	0.010	0.006	0.016	0.016	0.005	0.017	0.010	0.006	0.007	0.009	0.006	0.008	0.020
362.00	-0.001	0.014	0.010	0.006	0.016	0.016	0.005	0.017	0.011	0.006	0.007	0.009	0.006	0.007	0.020
363.00	-0.001	0.014	0.010	0.006	0.015	0.016	0.005	0.017	0.010	0.005	0.006	0.008	0.006	0.007	0.019
364.00	-0.001	0.014	0.010	0.006	0.015	0.015	0.005	0.016	0.010	0.005	0.006	0.008	0.005	0.007	0.019
365.00	-0.001	0.013	0.010	0.006	0.015	0.015	0.005	0.016	0.010	0.005	0.006	0.008	0.005	0.007	0.019
366.00	-0.001	0.014	0.010	0.006	0.015	0.015	0.005	0.016	0.010	0.005	0.006	0.008	0.006	0.007	0.019
367.00	-0.001	0.013	0.010	0.006	0.015	0.015	0.005	0.016	0.010	0.005	0.006	0.008	0.005	0.007	0.018
368.00	-0.001	0.013	0.009	0.006	0.015	0.015	0.005	0.015	0.010	0.005	0.006	0.008	0.005	0.007	0.018
369.00	-0.001	0.013	0.009	0.006	0.015	0.015	0.005	0.015	0.010	0.005	0.006	0.008	0.005	0.007	0.018
370.00	-0.001	0.013	0.009	0.005	0.014	0.014	0.005	0.015	0.009	0.005	0.006	0.008	0.005	0.006	0.017
371.00	-0.001	0.012	0.009	0.005	0.014	0.014	0.005	0.015	0.009	0.005	0.006	0.007	0.005	0.006	0.017
372.00	-0.001	0.012	0.009	0.005	0.014	0.014	0.005	0.014	0.009	0.005	0.005	0.008	0.005	0.006	0.017
373.00	-0.001	0.012	0.009	0.005	0.014	0.014	0.005	0.014	0.009	0.004	0.005	0.007	0.005	0.006	0.017
374.00	-0.001	0.012	0.009	0.005	0.014	0.013	0.004	0.014	0.009	0.004	0.005	0.007	0.005	0.006	0.016
375.00	-0.000	0.012	0.009	0.005	0.014	0.013	0.004	0.014	0.009	0.004	0.005	0.007	0.005	0.006	0.016
376.00	-0.000	0.012	0.008	0.005	0.014	0.013	0.004	0.014	0.009	0.004	0.005	0.007	0.005	0.006	0.016
377.00	-0.000	0.012	0.008	0.005	0.014	0.013	0.004	0.014	0.009	0.004	0.005	0.007	0.005	0.006	0.016
378.00	-0.000	0.011	0.008	0.005	0.013	0.013	0.004	0.013	0.009	0.004	0.005	0.007	0.005	0.006	0.016
379.00	-0.001	0.011	0.008	0.005	0.013	0.013	0.004	0.013	0.009	0.004	0.005	0.007	0.004	0.006	0.015
380.00	-0.001	0.011	0.008	0.005	0.013	0.012	0.004	0.013	0.008	0.004	0.005	0.007	0.004	0.005	0.015
381.00	-0.000	0.011	0.008	0.005	0.013	0.013	0.004	0.013	0.008	0.004	0.005	0.007	0.004	0.006	0.015
382.00	-0.000	0.011	0.008	0.005	0.013	0.012	0.004	0.013	0.008	0.004	0.005	0.007	0.004	0.005	0.015
383.00	-0.001	0.011	0.008	0.005	0.013	0.012	0.004	0.012	0.008	0.004	0.004	0.007	0.004	0.005	0.015
384.00	-0.000	0.011	0.008	0.004	0.013	0.012	0.004	0.012	0.008	0.004	0.004	0.006	0.004	0.005	0.014
385.00	-0.001	0.010	0.008	0.004	0.013	0.012	0.004	0.012	0.008	0.004	0.004	0.006	0.004	0.005	0.014
386.00	-0.001	0.010	0.007	0.004	0.013	0.012	0.004	0.012	0.008	0.004	0.004	0.006	0.004	0.005	0.014
387.00	-0.001	0.010	0.007	0.004	0.012	0.012	0.004	0.011	0.008	0.003	0.004	0.006	0.004	0.005	0.014
388.00	-0.001	0.010	0.007	0.004	0.012	0.011	0.003	0.011	0.007	0.003	0.004	0.006	0.004	0.005	0.013
389.00	-0.000	0.010	0.007	0.004	0.012	0.011	0.003	0.011	0.007	0.003	0.004	0.006	0.004	0.005	0.013
390.00	-0.001	0.009	0.007	0.004	0.012	0.011	0.003	0.011	0.007	0.003	0.004	0.006	0.003	0.005	0.013
391.00	-0.001	0.009	0.007	0.004	0.012	0.011	0.003	0.011	0.007	0.003	0.004	0.006	0.003	0.005	0.013
392.00	-0.001	0.009	0.007	0.004	0.012	0.011	0.003	0.011	0.007	0.003	0.004	0.006	0.003	0.005	0.013
393.00	-0.001	0.009	0.007	0.004	0.012	0.011	0.003	0.010	0.007	0.003	0.003	0.006	0.003	0.005	0.012
394.00	-0.001	0.009	0.007	0.004	0.012	0.011	0.003	0.010	0.007	0.003	0.003	0.005	0.003	0.005	0.012
395.00	-0.001	0.009	0.007	0.004	0.012	0.011	0.003	0.010	0.007	0.003	0.003	0.005	0.003	0.005	0.012
396.00	-0.001	0.009	0.006	0.003	0.012	0.010	0.003	0.010	0.007	0.003	0.003	0.005	0.003	0.004	0.012
397.00	-0.001	0.009	0.006	0.003	0.011	0.010	0.003	0.010	0.007	0.003	0.003	0.005	0.003	0.004	0.012
398.00	-0.001	0.008	0.006	0.003	0.011	0.010	0.003	0.010	0.006	0.003	0.003	0.005	0.003	0.004	0.011
399.00	-0.001	0.008	0.006	0.003	0.011	0.010	0.003	0.010	0.006	0.003	0.003	0.005	0.003	0.004	0.011
400.00	-0.001	0.008	0.006	0.003	0.011	0.010	0.003	0.009	0.006	0.003	0.003	0.005	0.003	0.004	0.011
401.00	-0.001	0.008	0.006	0.003	0.011	0.010	0.003	0.009	0.006	0.003	0.003	0.005	0.003	0.004	0.011
402.00	-0.001	0.008	0.006	0.003	0.011	0.010	0.003	0.009	0.006	0.003	0.003	0.005	0.003	0.004	0.011
403.00	-0.001	0.008	0.006	0.003	0.011	0.010	0.002	0.009	0.006	0.003	0.003	0.005	0.003	0.004	0.011
404.00	-0.001	0.008	0.006	0.003	0.011	0.009	0.002	0.009	0.006	0.002	0.003	0.005	0.003	0.004	0.011
405.00	-0.001	0.008	0.006	0.003	0.011	0.009	0.002	0.009	0.006	0.002	0.003	0.005	0.003	0.004	0.010
406.00	-0.001	0.007	0.006	0.003	0.011	0.009	0.002	0.009	0.006	0.002	0.003	0.005	0.003	0.004	0.010
407.00	-0.000	0.007	0.006	0.003	0.010	0.009	0.002	0.009	0.006	0.002	0.003	0.005	0.003	0.004	0.010
408.00	-0.001	0.007	0.006	0.003	0.010	0.009	0.002	0.008	0.006	0.002	0.003	0.004	0.002	0.004	0.010
409.00	-0.001	0.007	0.006	0.003	0.010	0.009	0.002	0.008	0.006	0.002	0.002	0.004	0.002	0.004	0.010
410.00	-0.000	0.007	0.006	0.003	0.010	0.009	0.002	0.008	0.006	0.002	0.003	0.004	0.003	0.004	0.010
411.00	-0.001	0.007	0.005	0.003	0.010	0.009	0.002	0.008	0.006	0.002	0.003	0.004	0.003	0.003	0.010
412.00	-0.001	0.007	0.005	0.003	0.010	0.009	0.002	0.008	0.006	0.002	0.002	0.004	0.002	0.004	0.010
413.00	-0.001	0.007	0.005	0.003	0.010	0.009	0.002	0.008	0.006	0.002	0.002	0.004	0.002	0.004	0.010
414.00	-0.001	0.007	0.005	0.003	0.010	0.008	0.002	0.008	0.006	0.002	0.002	0.004	0.002	0.004	0.009
415.00	-0.000	0.007	0.005	0.003	0.010	0.008	0.002	0.008	0.006	0.002	0.002	0.004	0.002	0.004	0.009
416.00	-0.000	0.007	0.005	0.003	0.010	0.008	0.002	0.008	0.006	0.002	0.002	0.004	0.002	0.004	0.009
417.00	-0.001	0.006	0.005	0.003	0.010	0.008	0.002	0.007	0.005	0.002	0.002	0.004	0.002	0.003	0.009
418.00	-0.001	0.006	0.005	0.003	0.010	0.008	0.002	0.007	0.005	0.002	0.002	0.004	0.002	0.003	0.009
419.00	-0.001	0.006	0.005	0.003	0.010	0.008	0.002	0.007	0.005	0.002	0.002	0.004	0.002	0.003	0.009
420.00	-0.000	0.006	0.005	0.003	0.010	0.008	0.002	0.007	0.005	0.002	0.002	0.004	0.002	0.003	0.009
421.00	-0.000	0.006	0.005	0.002	0.010	0.008	0.002	0.007	0.005	0.002	0.002	0.004	0.002	0.003	0.009
422.00	-0.000	0.006	0.005	0.002	0.009	0.008	0.002	0.007	0.005	0.002	0.002	0.004	0.002	0.003	0.008
423.00	-0.001	0.006	0.005	0.002	0.009	0.008	0.002	0.007	0.005	0.002	0.002	0.004	0.002	0.003	0.008
424.00	-0.001	0.006	0.005	0.002	0.009	0.008	0.002	0.007	0.005	0.002	0.002	0.004	0.002	0.003	0.008
425.00	-0.000	0.006	0.005	0.002	0.009	0.008	0.002	0.007	0.005	0.002	0.002	0.004	0.002	0.003	0.008
426.00	-0.001	0.006	0.005	0.002	0.009	0.008	0.002	0.007	0.005	0.002	0.002	0.004	0.002	0.003	0.008
427.00	-0.000	0.006	0.005	0.002	0.009	0.007	0.002	0.007	0.005	0.002	0.002	0.004	0.002	0.003	0.008
428.00	-0.000	0.005	0.004	0.002	0.009	0.007	0.002	0.006	0.005	0.002	0.002	0.004	0.002	0.003	0.008
429.00	-0.000	0.005	0.005	0.002	0.009	0.007	0.002	0.006	0.005	0.002	0.002	0.003	0.002	0.003	0.008
430.00	-0.001	0.005	0.004	0.002	0.009	0.007	0.001	0.006	0.005	0.002	0.002	0.003	0.002	0.003	0.008
431.00	-0.001	0.005	0.004	0.002	0.009	0.007	0.002	0.006	0.005	0.002	0.002	0.003	0.002	0.003	0.008
432.00	-0.001	0.005	0.004	0.002	0.009	0.007	0.001	0.006	0.005	0.002	0.002	0.003	0.002	0.003	0.008
433.00	-0.001	0.005	0.004	0.002	0.009	0.007	0.002	0.006	0.004	0.002	0.001	0.003	0.002	0.003	0.007
434.00	-0.001	0.005	0.004	0.002	0.009	0.007	0.001	0.006	0.004	0.002	0.001	0.003	0.002	0.003	0.007
435.00	-0.000	0.005	0.004	0.002	0.009	0.007	0.001	0.006	0.004	0.002	0.001	0.003	0.002	0.003	0.007
436.00	-0.001	0.005	0.004	0.002	0.009	0.007	0.001	0.006	0.004	0.002	0.001	0.003	0.002	0.003	0.007
437.00	-0.001	0.005	0.004	0.002	0.009	0.007	0.001	0.006	0.004	0.002	0.001	0.003	0.002	0.003	0.007
438.00	-0.001	0.005	0.004	0.002	0.009	0.007	0.001	0.006	0.004	0.001	0.001	0.003	0.002	0.003	0.007
439.00	-0.001	0.005	0.004	0.002	0.009	0.007	0.001	0.005	0.004	0.002	0.001	0.003	0.002	0.003	0.007
440.00	-0.001	0.005	0.004	0.002	0.008	0.006	0.001	0.005	0.004	0.001	0.001	0.003	0.002	0.002	0.007
441.00	-0.001	0.005	0.004	0.002	0.008	0.006	0.001	0.005	0.004	0.001	0.001	0.003	0.001	0.002	0.007
442.00	-0.000	0.004	0.004	0.002	0.008	0.006	0.001	0.005	0.004	0.001	0.001	0.003	0.001	0.002	0.007
443.00	-0.001	0.004	0.004	0.002	0.008	0.006	0.001	0.005	0.004	0.001	0.001	0.003	0.001	0.002	0.007
444.00	-0.001	0.004	0.004	0.002	0.008	0.006	0.001	0.005	0.004	0.001	0.001	0.003	0.001	0.002	0.007
445.00	-0.001	0.004	0.004	0.002	0.008	0.006	0.001	0.005	0.004	0.001	0.001	0.003	0.001	0.002	0.006
446.00	-0.001	0.004	0.004	0.002	0.008	0.006	0.001	0.005	0.004	0.001	0.001	0.003	0.001	0.002	0.006
447.00	-0.001	0.004	0.004	0.002	0.008	0.006	0.001	0.005	0.004	0.001	0.001	0.003	0.001	0.002	0.006
448.00	-0.001	0.004	0.004	0.002	0.008	0.006	0.001	0.005	0.004	0.001	0.001	0.003	0.001	0.002	0.006
449.00	-0.001	0.004	0.004	0.002	0.008	0.006	0.001	0.005	0.004	0.001	0.001	0.003	0.001	0.002	0.006
450.00	-0.001	0.004	0.004	0.002	0.008	0.006	0.001	0.005	0.004	0.001	0.001	0.003	0.001	0.002	0.006
451.00	-0.001	0.004	0.004	0.002	0.008	0.006	0.001	0.005	0.004	0.001	0.001	0.003	0.001	0.002	0.006
452.00	-0.001	0.004	0.004	0.002	0.008	0.006	0.001	0.005	0.004	0.001	0.001	0.003	0.001	0.002	0.006
453.00	-0.001	0.004	0.003	0.002	0.008	0.006	0.001	0.005	0.004	0.001	0.001	0.003	0.001	0.002	0.006
454.00	-0.001	0.004	0.003	0.002	0.008	0.006	0.001	0.004	0.004	0.001	0.001	0.003	0.001	0.002	0.006
455.00	-0.001	0.004	0.003	0.002	0.008	0.006	0.001	0.004	0.004	0.001	0.001	0.003	0.001	0.002	0.006
456.00	-0.000	0.004	0.003	0.002	0.008	0.006	0.001	0.004	0.004	0.001	0.001	0.003	0.001	0.002	0.006
457.00	-0.000	0.004	0.003	0.002	0.008	0.005	0.001	0.004	0.004	0.001	0.001	0.003	0.001	0.002	0.006
458.00	-0.001	0.004	0.003	0.002	0.008	0.005	0.001	0.004	0.004	0.001	0.001	0.002	0.001	0.002	0.006
459.00	-0.001	0.004	0.003	0.002	0.008	0.005	0.001	0.004	0.004	0.001	0.001	0.002	0.001	0.002	0.006
460.00	-0.001	0.004	0.003	0.002	0.008	0.005	0.001	0.004	0.004	0.001	0.001	0.003	0.001	0.002	0.006
461.00	-0.000	0.004	0.003	0.002	0.008	0.005	0.001	0.004	0.004	0.001	0.001	0.003	0.001	0.002	0.006
462.00	-0.000	0.004	0.003	0.002	0.008	0.005	0.001	0.004	0.004	0.001	0.001	0.003	0.001	0.002	0.006
463.00	-0.000	0.004	0.003	0.002	0.008	0.005	0.001	0.004	0.004	0.001	0.001	0.003	0.001	0.002	0.006
464.00	-0.000	0.003	0.003	0.002	0.008	0.005	0.001	0.004	0.003	0.001	0.001	0.003	0.001	0.002	0.005
465.00	-0.000	0.003	0.003	0.002	0.008	0.005	0.001	0.004	0.003	0.001	0.001	0.002	0.001	0.002	0.005
466.00	-0.001	0.003	0.003	0.001	0.008	0.005	0.001	0.004	0.003	0.001	0.001	0.002	0.001	0.002	0.005
467.00	-0.000	0.003	0.003	0.001	0.008	0.005	0.001	0.004	0.003	0.001	0.001	0.002	0.001	0.002	0.005
468.00	-0.000	0.003	0.003	0.001	0.008	0.005	0.001	0.004	0.003	0.001	0.001	0.002	0.001	0.002	0.005
469.00	-0.000	0.003	0.003	0.001	0.008	0.005	0.001	0.004	0.003	0.001	0.001	0.002	0.001	0.002	0.005
470.00	-0.000	0.003	0.003	0.001	0.007	0.005	0.001	0.004	0.003	0.001	0.001	0.002	0.001	0.002	0.005
471.00	-0.000	0.003	0.003	0.001	0.007	0.005	0.001	0.004	0.003	0.001	0.001	0.002	0.001	0.002	0.005
472.00	-0.000	0.003	0.003	0.001	0.007	0.005	0.001	0.004	0.003	0.001	0.001	0.002	0.001	0.002	0.005
473.00	-0.000	0.003	0.003	0.001	0.007	0.005	0.001	0.004	0.003	0.001	0.001	0.002	0.001	0.002	0.005
474.00	-0.000	0.003	0.003	0.001	0.007	0.005	0.001	0.004	0.003	0.001	0.001	0.002	0.001	0.002	0.005
475.00	-0.000	0.003	0.003	0.001	0.007	0.005	0.001	0.004	0.003	0.001	0.001	0.002	0.001	0.002	0.005
476.00	-0.001	0.003	0.003	0.001	0.007	0.005	0.001	0.004	0.003	0.001	0.001	0.002	0.001	0.002	0.005
477.00	-0.001	0.003	0.003	0.001	0.007	0.005	0.001	0.004	0.003	0.001	0.000	0.002	0.001	0.002	0.005
478.00	-0.001	0.003	0.003	0.001	0.007	0.005	0.001	0.003	0.003	0.001	0.000	0.002	0.001	0.002	0.005
479.00	-0.001	0.003	0.003	0.001	0.007	0.005	0.001	0.003	0.003	0.001	0.000	0.002	0.001	0.002	0.005
480.00	-0.001	0.003	0.003	0.001	0.007	0.005	0.001	0.003	0.003	0.001	0.000	0.002	0.001	0.002	0.005
481.00	-0.001	0.003	0.003	0.001	0.007	0.005	0.001	0.003	0.003	0.001	0.000	0.002	0.001	0.002	0.005
482.00	-0.001	0.003	0.003	0.001	0.007	0.005	0.001	0.003	0.003	0.001	0.000	0.002	0.001	0.002	0.005
483.00	-0.001	0.003	0.003	0.001	0.007	0.004	0.001	0.003	0.003	0.001	0.000	0.002	0.001	0.002	0.005
484.00	-0.001	0.003	0.003	0.001	0.007	0.004	0.001	0.003	0.003	0.001	0.000	0.002	0.001	0.002	0.005
485.00	-0.001	0.003	0.003	0.001	0.007	0.004	0.001	0.003	0.003	0.001	0.000	0.002	0.001	0.002	0.005
486.00	-0.001	0.003	0.003	0.001	0.007	0.004	0.001	0.003	0.003	0.001	0.000	0.002	0.001	0.002	0.005
487.00	-0.001	0.003	0.003	0.001	0.007	0.004	0.001	0.003	0.003	0.001	0.000	0.002	0.001	0.002	0.005
488.00	-0.001	0.003	0.003	0.001	0.007	0.004	0.000	0.003	0.003	0.001	0.000	0.002	0.001	0.002	0.004
489.00	-0.001	0.003	0.003	0.001	0.007	0.004	0.000	0.003	0.003	0.001	0.000	0.002	0.001	0.001	0.004
490.00	-0.001	0.003	0.003	0.001	0.007	0.004	0.000	0.003	0.003	0.001	0.000	0.002	0.001	0.001	0.004
491.00	-0.001	0.003	0.003	0.001	0.007	0.004	0.001	0.003	0.003	0.001	0.000	0.002	0.001	0.001	0.004
492.00	-0.001	0.003	0.003	0.001	0.007	0.004	0.001	0.003	0.003	0.001	0.000	0.002	0.001	0.002	0.004
493.00	-0.000	0.002	0.003	0.001	0.007	0.004	0.001	0.003	0.003	0.001	0.000	0.002	0.001	0.001	0.004
494.00	-0.000	0.002	0.003	0.001	0.007	0.004	0.000	0.003	0.003	0.001	0.000	0.002	0.001	0.001	0.004
495.00	-0.000	0.002	0.003	0.001	0.007	0.004	0.001	0.003	0.003	0.001	0.000	0.002	0.001	0.002	0.004
496.00	-0.001	0.002	0.003	0.001	0.007	0.004	0.001	0.003	0.003	0.001	0.000	0.002	0.001	0.002	0.004
497.00	-0.000	0.002	0.003	0.001	0.007	0.004	0.001	0.003	0.003	0.001	0.000	0.002	0.001	0.002	0.004
498.00	-0.000	0.002	0.003	0.001	0.007	0.004	0.001	0.003	0.003	0.001	0.000	0.002	0.001	0.002	0.004
499.00	-0.000	0.002	0.003	0.001	0.007	0.004	0.000	0.003	0.003	0.001	0.000	0.002	0.001	0.002	0.004
500.00	-0.000	0.002	0.003	0.001	0.007	0.004	0.000	0.003	0.003	0.001	0.000	0.002	0.001	0.001	0.004
501.00	-0.000	0.002	0.003	0.001	0.007	0.004	0.001	0.003	0.003	0.001	0.000	0.002	0.001	0.002	0.004
502.00	-0.000	0.002	0.003	0.001	0.007	0.004	0.000	0.003	0.003	0.001	0.000	0.002	0.001	0.001	0.004
503.00	-0.000	0.002	0.002	0.001	0.007	0.004	0.000	0.003	0.003	0.001	0.000	0.002	0.001	0.001	0.004
504.00	-0.000	0.002	0.003	0.001	0.007	0.004	0.000	0.003	0.003	0.001	0.000	0.002	0.001	0.001	0.004
505.00	-0.000	0.002	0.003	0.001	0.007	0.004	0.000	0.003	0.003	0.001	0.000	0.002	0.001	0.002	0.004
506.00	-0.000	0.002	0.003	0.001	0.007	0.004	0.000	0.003	0.003	0.001	0.000	0.002	0.001	0.002	0.004
507.00	-0.000	0.002	0.003	0.001	0.007	0.004	0.000	0.003	0.003	0.001	0.000	0.002	0.001	0.001	0.004
508.00	-0.000	0.002	0.003	0.001	0.007	0.004	0.001	0.003	0.003	0.001	0.000	0.002	0.001	0.002	0.004
509.00	-0.000	0.002	0.003	0.001	0.006	0.004	0.000	0.003	0.003	0.001	0.000	0.002	0.001	0.002	0.004
510.00	-0.000	0.002	0.002	0.001	0.006	0.004	0.000	0.003	0.003	0.001	0.000	0.002	0.001	0.001	0.004
511.00	-0.000	0.002	0.002	0.001	0.006	0.004	0.000	0.003	0.003	0.001	0.000	0.002	0.001	0.002	0.004
512.00	-0.000	0.002	0.003	0.001	0.006	0.004	0.000	0.003	0.003	0.001	0.000	0.002	0.001	0.002	0.004
513.00	-0.000	0.002	0.002	0.001	0.006	0.004	0.000	0.002	0.003	0.001	0.000	0.002	0.001	0.001	0.004
514.00	-0.000	0.002	0.002	0.001	0.006	0.004	0.000	0.002	0.003	0.001	0.000	0.002	0.001	0.001	0.004
515.00	-0.000	0.002	0.002	0.001	0.006	0.004	0.000	0.002	0.002	0.001	0.000	0.002	0.001	0.001	0.004
516.00	-0.000	0.002	0.002	0.001	0.006	0.004	0.000	0.002	0.002	0.001	0.000	0.002	0.001	0.001	0.004
517.00	-0.000	0.002	0.002	0.001	0.006	0.004	0.000	0.002	0.002	0.001	0.000	0.002	0.001	0.001	0.004
518.00	-0.000	0.002	0.002	0.001	0.006	0.004	0.000	0.002	0.002	0.001	0.000	0.002	0.001	0.001	0.004
519.00	-0.000	0.002	0.002	0.001	0.006	0.004	0.000	0.002	0.002	0.001	0.000	0.002	0.001	0.001	0.004
520.00	-0.000	0.002	0.002	0.001	0.006	0.004	0.000	0.002	0.002	0.001	0.000	0.002	0.001	0.001	0.004
521.00	-0.000	0.002	0.002	0.001	0.006	0.003	0.000	0.002	0.002	0.001	0.000	0.002	0.001	0.001	0.004
522.00	-0.000	0.002	0.002	0.001	0.006	0.004	0.000	0.002	0.002	0.001	0.000	0.002	0.001	0.001	0.004
523.00	-0.000	0.002	0.002	0.001	0.006	0.004	0.000	0.002	0.002	0.001	0.000	0.002	0.001	0.001	0.004
524.00	-0.000	0.002	0.002	0.001	0.006	0.003	0.000	0.002	0.002	0.001	0.000	0.001	0.001	0.001	0.004
525.00	-0.000	0.002	0.002	0.001	0.006	0.004	0.000	0.002	0.002	0.001	0.000	0.002	0.001	0.001	0.004
526.00	-0.000	0.002	0.002	0.001	0.006	0.004	0.000	0.002	0.002	0.001	0.000	0.002	0.001	0.001	0.004
527.00	-0.000	0.002	0.002	0.001	0.006	0.003	0.000	0.002	0.002	0.001	0.000	0.002	0.001	0.001	0.004
528.00	-0.000	0.002	0.002	0.001	0.006	0.003	0.000	0.002	0.002	0.001	0.000	0.002	0.001	0.001	0.004
529.00	-0.000	0.002	0.002	0.001	0.006	0.003	0.000	0.002	0.002	0.001	0.000	0.001	0.001	0.001	0.004
530.00	-0.000	0.002	0.002	0.001	0.006	0.003	0.000	0.002	0.002	0.001	0.000	0.001	0.001	0.001	0.003
531.00	-0.000	0.002	0.002	0.001	0.006	0.003	0.000	0.002	0.002	0.001	0.000	0.001	0.001	0.001	0.004
532.00	-0.000	0.002	0.002	0.001	0.006	0.003	0.000	0.002	0.002	0.001	0.000	0.001	0.001	0.001	0.003
533.00	-0.000	0.002	0.002	0.001	0.006	0.003	0.000	0.002	0.002	0.001	0.000	0.001	0.001	0.001	0.003
534.00	-0.000	0.002	0.002	0.001	0.006	0.003	0.000	0.002	0.002	0.001	0.000	0.001	0.001	0.001	0.003
535.00	-0.000	0.002	0.002	0.001	0.006	0.004	0.001	0.002	0.002	0.001	0.000	0.002	0.001	0.001	0.004
536.00	0.001	0.003	0.003	0.002	0.007	0.004	0.001	0.003	0.003	0.002	0.001	0.002	0.002	0.002	0.004
537.00	-0.000	0.002	0.002	0.001	0.006	0.003	0.000	0.002	0.002	0.001	0.000	0.001	0.001	0.001	0.003
538.00	-0.001	0.002	0.002	0.001	0.006	0.003	0.000	0.002	0.002	0.001	0.000	0.001	0.000	0.001	0.003
539.00	-0.000	0.002	0.002	0.001	0.006	0.003	0.000	0.002	0.002	0.001	-0.000	0.001	0.000	0.001	0.003
540.00	-0.000	0.002	0.002	0.001	0.006	0.003	0.000	0.002	0.002	0.001	-0.000	0.001	0.000	0.001	0.003
541.00	-0.000	0.002	0.002	0.001	0.006	0.003	0.000	0.002	0.002	0.001	0.000	0.001	0.000	0.001	0.003
542.00	-0.000	0.002	0.002	0.001	0.006	0.003	0.000	0.002	0.002	0.001	0.000	0.001	0.001	0.001	0.003
543.00	-0.000	0.002	0.002	0.001	0.006	0.003	0.000	0.002	0.002	0.001	-0.000	0.001	0.000	0.001	0.003
544.00	-0.001	0.001	0.002	0.001	0.006	0.003	0.000	0.002	0.002	0.001	-0.000	0.001	0.000	0.001	0.003
545.00	-0.000	0.001	0.002	0.001	0.006	0.003	0.000	0.002	0.002	0.001	-0.000	0.001	0.000	0.001	0.003
546.00	-0.001	0.001	0.002	0.001	0.006	0.003	0.000	0.002	0.002	0.000	-0.000	0.001	0.000	0.001	0.003
547.00	-0.000	0.001	0.002	0.001	0.006	0.003	0.000	0.002	0.002	0.000	-0.000	0.001	0.000	0.001	0.003
548.00	-0.000	0.001	0.002	0.001	0.006	0.003	0.000	0.002	0.002	0.000	-0.000	0.001	0.000	0.001	0.003
549.00	-0.000	0.001	0.002	0.001	0.006	0.003	0.000	0.002	0.002	0.001	-0.000	0.001	0.000	0.001	0.003
550.00	-0.000	0.001	0.002	0.001	0.006	0.003	0.000	0.002	0.002	0.000	-0.000	0.001	0.000	0.001	0.003
551.00	-0.000	0.001	0.002	0.001	0.005	0.003	0.000	0.002	0.002	0.000	-0.000	0.001	0.000	0.001	0.003
552.00	-0.000	0.001	0.002	0.001	0.006	0.003	0.000	0.002	0.002	0.000	-0.000	0.001	0.000	0.001	0.003
553.00	-0.000	0.001	0.002	0.001	0.005	0.003	0.000	0.002	0.002	0.000	-0.000	0.001	0.000	0.001	0.003
554.00	-0.000	0.001	0.002	0.001	0.006	0.003	0.000	0.002	0.002	0.000	-0.000	0.001	0.000	0.001	0.003
555.00	-0.000	0.001	0.002	0.001	0.006	0.003	0.000	0.002	0.002	0.001	-0.000	0.001	0.000	0.001	0.003
556.00	-0.000	0.001	0.002	0.001	0.006	0.003	0.000	0.002	0.002	0.001	-0.000	0.001	0.000	0.001	0.003
557.00	-0.000	0.001	0.002	0.001	0.005	0.003	0.000	0.002	0.002	0.001	-0.000	0.001	0.000	0.001	0.003
558.00	-0.000	0.001	0.002	0.001	0.006	0.003	0.000	0.002	0.002	0.001	0.000	0.001	0.000	0.001	0.003
559.00	-0.000	0.001	0.002	0.001	0.005	0.003	0.000	0.002	0.002	0.001	-0.000	0.001	0.000	0.001	0.003
560.00	-0.001	0.001	0.002	0.001	0.005	0.003	0.000	0.002	0.002	0.000	-0.000	0.001	0.000	0.001	0.003
561.00	-0.001	0.001	0.002	0.001	0.005	0.003	0.000	0.002	0.002	0.000	-0.000	0.001	0.000	0.001	0.003
562.00	-0.000	0.001	0.002	0.001	0.005	0.003	0.000	0.002	0.002	0.000	-0.000	0.001	0.000	0.001	0.003
563.00	-0.000	0.001	0.002	0.001	0.005	0.003	0.000	0.002	0.002	0.000	-0.000	0.001	0.000	0.001	0.003
564.00	-0.000	0.001	0.002	0.001	0.005	0.003	0.000	0.002	0.002	0.001	-0.000	0.001	0.000	0.001	0.003
565.00	-0.000	0.001	0.002	0.001	0.006	0.003	0.000	0.002	0.002	0.001	0.000	0.001	0.001	0.001	0.003
566.00	-0.000	0.001	0.002	0.001	0.006	0.003	0.000	0.002	0.002	0.001	0.000	0.001	0.001	0.001	0.003
567.00	-0.000	0.001	0.002	0.001	0.005	0.003	0.000	0.002	0.002	0.001	0.000	0.001	0.000	0.001	0.003
568.00	-0.000	0.001	0.002	0.001	0.005	0.003	0.000	0.002	0.002	0.001	-0.000	0.001	0.000	0.001	0.003
569.00	-0.000	0.001	0.002	0.001	0.005	0.003	0.000	0.002	0.002	0.000	-0.000	0.001	0.000	0.001	0.003
570.00	-0.000	0.001	0.002	0.001	0.005	0.003	0.000	0.002	0.002	0.000	-0.000	0.001	0.000	0.001	0.003
571.00	-0.000	0.001	0.002	0.001	0.005	0.003	0.000	0.002	0.002	0.000	-0.000	0.001	0.000	0.001	0.003
572.00	-0.000	0.001	0.002	0.001	0.005	0.003	0.000	0.002	0.002	0.000	-0.000	0.001	0.000	0.001	0.003
573.00	-0.000	0.001	0.002	0.001	0.005	0.003	0.000	0.002	0.002	0.000	-0.000	0.001	0.001	0.001	0.003
574.00	-0.000	0.001	0.002	0.001	0.005	0.003	0.000	0.002	0.002	0.000	-0.000	0.001	0.000	0.001	0.003
575.00	-0.000	0.001	0.002	0.001	0.005	0.003	0.000	0.002	0.002	0.000	-0.000	0.001	0.000	0.001	0.003
576.00	-0.000	0.001	0.002	0.001	0.005	0.003	0.000	0.002	0.002	0.000	-0.000	0.001	0.000	0.001	0.003
577.00	-0.000	0.001	0.002	0.001	0.005	0.003	0.000	0.002	0.002	0.000	-0.000	0.001	0.000	0.001	0.003
578.00	-0.000	0.001	0.002	0.001	0.005	0.003	0.000	0.002	0.002	0.000	0.000	0.001	0.000	0.001	0.003
579.00	-0.000	0.001	0.002	0.001	0.005	0.003	0.000	0.002	0.002	0.000	0.000	0.001	0.001	0.001	0.003
580.00	-0.000	0.001	0.002	0.001	0.005	0.003	0.000	0.002	0.002	0.000	-0.000	0.001	0.000	0.001	0.003
581.00	-0.000	0.001	0.002	0.001	0.005	0.003	0.000	0.002	0.002	0.000	0.000	0.001	0.000	0.001	0.003
582.00	-0.000	0.001	0.002	0.001	0.005	0.003	0.000	0.002	0.002	0.000	0.000	0.001	0.001	0.001	0.003
583.00	-0.000	0.001	0.002	0.001	0.005	0.003	0.000	0.002	0.002	0.000	0.000	0.001	0.000	0.001	0.003
584.00	-0.000	0.001	0.002	0.001	0.005	0.003	0.000	0.002	0.002	0.000	0.000	0.001	0.000	0.001	0.003
585.00	-0.000	0.001	0.002	0.001	0.005	0.003	0.000	0.002	0.002	0.000	0.000	0.001	0.000	0.001	0.003
586.00	-0.000	0.001	0.002	0.001	0.005	0.003	0.000	0.002	0.002	0.000	0.000	0.001	0.000	0.001	0.003
587.00	-0.000	0.001	0.002	0.001	0.005	0.003	0.000	0.002	0.002	0.001	0.000	0.001	0.000	0.001	0.003
588.00	-0.000	0.001	0.002	0.001	0.005	0.003	0.000	0.002	0.002	0.001	0.000	0.001	0.001	0.001	0.003
589.00	-0.000	0.001	0.002	0.001	0.005	0.003	0.000	0.002	0.002	0.001	0.000	0.001	0.001	0.001	0.003
590.00	-0.000	0.001	0.002	0.001	0.005	0.003	0.000	0.002	0.002	0.000	0.000	0.001	0.000	0.001	0.003
591.00	-0.000	0.001	0.002	0.001	0.005	0.003	0.000	0.002	0.002	0.000	0.000	0.001	0.000	0.001	0.003
592.00	-0.000	0.001	0.002	0.001	0.005	0.003	0.000	0.002	0.002	0.000	0.000	0.001	0.000	0.001	0.003
593.00	-0.000	0.001	0.002	0.001	0.005	0.003	0.000	0.002	0.002	0.001	0.000	0.001	0.001	0.001	0.003
594.00	-0.000	0.001	0.002	0.001	0.005	0.003	0.000	0.002	0.002	0.000	0.000	0.001	0.000	0.001	0.003
595.00	-0.000	0.001	0.002	0.001	0.005	0.003	0.000	0.002	0.002	0.000	-0.000	0.001	0.000	0.001	0.003
596.00	-0.000	0.001	0.002	0.001	0.005	0.002	0.000	0.002	0.002	0.000	0.000	0.001	0.001	0.001	0.003
597.00	-0.000	0.001	0.002	0.001	0.005	0.002	0.000	0.001	0.002	0.000	-0.000	0.001	0.000	0.001	0.003
598.00	-0.000	0.001	0.002	0.001	0.005	0.002	0.000	0.001	0.002	0.000	-0.000	0.001	0.000	0.001	0.003
599.00	-0.000	0.001	0.002	0.001	0.005	0.002	0.000	0.001	0.002	0.000	-0.000	0.001	0.000	0.001	0.002
600.00	-0.000	0.001	0.002	0.001	0.005	0.002	0.000	0.001	0.002	0.000	-0.000	0.001	0.000	0.001	0.003
601.00	-0.000	0.001	0.002	0.001	0.005	0.002	0.000	0.001	0.002	0.000	-0.000	0.001	0.000	0.001	0.003
602.00	-0.000	0.001	0.002	0.001	0.005	0.003	0.000	0.002	0.002	0.000	0.000	0.001	0.000	0.001	0.003
603.00	-0.000	0.001	0.002	0.001	0.005	0.002	0.000	0.002	0.002	0.000	-0.000	0.001	0.000	0.001	0.003
604.00	-0.000	0.001	0.002	0.001	0.005	0.002	0.000	0.001	0.002	0.000	-0.000	0.001	0.000	0.001	0.002
605.00	-0.000	0.001	0.002	0.001	0.005	0.002	-0.000	0.001	0.001	0.000	-0.000	0.001	0.000	0.001	0.002
606.00	-0.000	0.001	0.002	0.001	0.005	0.002	0.000	0.001	0.001	0.000	-0.000	0.001	0.000	0.001	0.002
607.00	-0.000	0.001	0.002	0.001	0.005	0.002	0.000	0.001	0.001	0.000	-0.000	0.001	0.000	0.001	0.002
608.00	-0.000	0.001	0.002	0.001	0.005	0.002	0.000	0.001	0.001	0.000	-0.000	0.001	0.000	0.001	0.002
609.00	-0.000	0.001	0.002	0.001	0.005	0.002	0.000	0.001	0.002	0.000	-0.000	0.001	0.000	0.001	0.002
610.00	-0.000	0.001	0.002	0.001	0.005	0.002	0.000	0.001	0.001	0.000	-0.000	0.001	0.000	0.001	0.002
611.00	-0.000	0.001	0.002	0.001	0.005	0.002	0.000	0.001	0.002	0.000	-0.000	0.001	0.000	0.001	0.002
612.00	-0.000	0.001	0.002	0.001	0.005	0.002	0.000	0.002	0.002	0.000	-0.000	0.001	0.000	0.001	0.002
613.00	-0.000	0.001	0.002	0.001	0.005	0.002	0.000	0.001	0.001	0.000	-0.000	0.001	0.000	0.001	0.002
614.00	-0.000	0.001	0.002	0.001	0.005	0.002	0.000	0.001	0.001	0.000	-0.000	0.001	0.000	0.001	0.002
615.00	-0.000	0.001	0.002	0.001	0.005	0.002	0.000	0.001	0.001	0.000	-0.000	0.001	0.000	0.001	0.002
616.00	-0.000	0.001	0.002	0.001	0.005	0.002	0.000	0.001	0.001	0.000	-0.000	0.001	0.000	0.001	0.002
617.00	-0.000	0.001	0.002	0.001	0.005	0.002	0.000	0.001	0.001	0.000	-0.000	0.001	0.000	0.001	0.002
618.00	-0.000	0.001	0.002	0.001	0.005	0.002	0.000	0.001	0.001	0.000	-0.000	0.001	0.000	0.001	0.002
619.00	-0.000	0.001	0.002	0.001	0.005	0.002	-0.000	0.001	0.001	0.000	-0.000	0.001	0.000	0.001	0.002
620.00	-0.000	0.001	0.002	0.001	0.005	0.002	0.000	0.001	0.001	0.000	-0.000	0.001	0.000	0.001	0.002
621.00	-0.000	0.001	0.002	0.001	0.005	0.002	0.000	0.001	0.001	0.000	-0.000	0.001	0.000	0.001	0.002
622.00	-0.000	0.001	0.002	0.001	0.005	0.002	0.000	0.001	0.001	0.000	-0.000	0.001	0.000	0.001	0.002
623.00	-0.000	0.001	0.002	0.001	0.005	0.002	0.000	0.001	0.001	0.000	-0.000	0.001	0.000	0.001	0.002
624.00	-0.000	0.001	0.002	0.001	0.005	0.002	0.000	0.001	0.001	0.000	-0.000	0.001	0.000	0.001	0.002
625.00	-0.000	0.001	0.001	0.001	0.005	0.002	-0.000	0.001	0.001	0.000	-0.000	0.001	0.000	0.001	0.002
626.00	-0.000	0.001	0.001	0.001	0.005	0.002	-0.000	0.001	0.001	0.000	-0.000	0.001	0.000	0.001	0.002
627.00	-0.000	0.001	0.001	0.001	0.005	0.002	-0.000	0.001	0.001	0.000	-0.000	0.001	0.000	0.001	0.002
628.00	-0.000	0.001	0.002	0.001	0.005	0.002	-0.000	0.001	0.001	0.000	-0.000	0.001	0.000	0.001	0.002
629.00	-0.000	0.001	0.001	0.000	0.005	0.002	-0.000	0.001	0.001	0.000	-0.000	0.001	0.000	0.001	0.002
630.00	-0.000	0.001	0.001	0.000	0.005	0.002	-0.000	0.001	0.001	0.000	-0.000	0.001	0.000	0.001	0.002
631.00	-0.000	0.001	0.001	0.000	0.005	0.002	-0.000	0.001	0.001	0.000	-0.000	0.001	0.000	0.001	0.002
632.00	-0.000	0.001	0.001	0.001	0.005	0.002	-0.000	0.001	0.001	0.000	-0.000	0.001	0.000	0.001	0.002
633.00	-0.000	0.001	0.002	0.001	0.005	0.002	-0.000	0.001	0.001	0.000	-0.000	0.001	0.000	0.001	0.002
634.00	-0.000	0.001	0.002	0.001	0.005	0.002	0.000	0.001	0.001	0.000	-0.000	0.001	0.000	0.001	0.002
635.00	-0.000	0.001	0.001	0.001	0.005	0.002	-0.000	0.001	0.001	0.000	-0.000	0.001	0.000	0.001	0.002
636.00	-0.000	0.001	0.001	0.000	0.005	0.002	-0.000	0.001	0.001	0.000	-0.000	0.001	0.000	0.001	0.002
637.00	-0.000	0.001	0.001	0.000	0.004	0.002	-0.000	0.001	0.001	0.000	-0.000	0.001	0.000	0.001	0.002
638.00	-0.000	0.001	0.001	0.001	0.005	0.002	-0.000	0.001	0.001	0.000	-0.000	0.001	0.000	0.001	0.002
639.00	-0.000	0.001	0.001	0.001	0.005	0.002	0.000	0.001	0.001	0.000	-0.000	0.001	0.000	0.001	0.002
640.00	-0.000	0.001	0.001	0.001	0.004	0.002	-0.000	0.001	0.001	0.000	-0.000	0.001	0.000	0.001	0.002
641.00	-0.000	0.001	0.001	0.001	0.004	0.002	-0.000	0.001	0.001	0.000	-0.000	0.001	0.000	0.001	0.002
642.00	-0.000	0.001	0.001	0.001	0.004	0.002	-0.000	0.001	0.001	0.000	-0.000	0.001	0.000	0.001	0.002
643.00	-0.000	0.001	0.001	0.001	0.004	0.002	-0.000	0.001	0.001	0.000	-0.000	0.001	0.000	0.001	0.002
644.00	-0.000	0.000	0.001	0.000	0.004	0.002	-0.000	0.001	0.001	0.000	-0.000	0.001	0.000	0.001	0.002
645.00	-0.000	0.001	0.001	0.001	0.004	0.002	-0.000	0.001	0.001	0.000	-0.000	0.001	0.000	0.001	0.002
646.00	-0.000	0.001	0.001	0.001	0.004	0.002	-0.000	0.001	0.001	0.000	-0.000	0.001	0.000	0.001	0.002
647.00	-0.000	0.001	0.001	0.001	0.004	0.002	-0.000	0.001	0.001	0.000	-0.000	0.001	0.000	0.001	0.002
648.00	-0.000	0.001	0.002	0.001	0.004	0.002	-0.000	0.001	0.001	0.000	-0.000	0.001	0.000	0.001	0.002
649.00	-0.000	0.001	0.002	0.001	0.005	0.002	-0.000	0.001	0.001	0.000	-0.000	0.001	0.000	0.001	0.002
650.00	-0.000	0.001	0.002	0.001	0.005	0.002	-0.000	0.001	0.001	0.000	-0.000	0.001	0.000	0.001	0.002
651.00	-0.000	0.001	0.002	0.001	0.005	0.002	-0.000	0.001	0.001	0.000	-0.000	0.001	0.000	0.001	0.002
652.00	-0.000	0.001	0.002	0.001	0.005	0.002	0.000	0.001	0.002	0.000	-0.000	0.001	0.000	0.001	0.002
653.00	-0.000	0.001	0.002	0.001	0.005	0.002	0.000	0.001	0.001	0.000	-0.000	0.001	0.000	0.001	0.002
654.00	-0.000	0.001	0.002	0.001	0.005	0.002	0.000	0.001	0.001	0.000	-0.000	0.001	0.000	0.001	0.002
655.00	-0.000	0.001	0.002	0.001	0.005	0.002	0.000	0.001	0.001	0.000	-0.000	0.001	0.000	0.001	0.002
656.00	-0.000	0.001	0.002	0.001	0.005	0.002	0.000	0.001	0.001	0.000	0.000	0.001	0.000	0.001	0.002
657.00	-0.000	0.001	0.002	0.001	0.005	0.002	0.000	0.001	0.001	0.000	0.000	0.001	0.000	0.001	0.002
658.00	-0.000	0.001	0.002	0.001	0.005	0.002	0.000	0.001	0.001	0.000	-0.000	0.001	0.000	0.001	0.002
659.00	-0.000	0.001	0.002	0.001	0.005	0.002	0.000	0.001	0.001	0.000	-0.000	0.001	0.000	0.001	0.002
660.00	-0.000	0.001	0.002	0.001	0.005	0.002	0.000	0.001	0.001	0.000	-0.000	0.001	0.000	0.001	0.002
661.00	-0.000	0.001	0.002	0.001	0.005	0.002	0.000	0.001	0.001	0.000	-0.000	0.001	0.000	0.001	0.002
662.00	-0.000	0.001	0.002	0.001	0.005	0.002	0.000	0.001	0.001	0.000	0.000	0.001	0.000	0.001	0.002
663.00	-0.000	0.001	0.002	0.001	0.005	0.002	0.000	0.001	0.001	0.000	-0.000	0.001	0.000	0.001	0.002
664.00	-0.000	0.001	0.002	0.001	0.004	0.002	0.000	0.001	0.001	0.000	-0.000	0.001	0.000	0.001	0.002
665.00	-0.000	0.001	0.002	0.001	0.004	0.002	0.000	0.001	0.001	0.000	-0.000	0.001	0.000	0.001	0.002
666.00	-0.000	0.001	0.002	0.001	0.004	0.002	0.000	0.001	0.001	0.000	-0.000	0.001	0.000	0.001	0.002
667.00	-0.000	0.001	0.002	0.001	0.004	0.002	0.000	0.001	0.001	0.000	0.000	0.001	0.000	0.001	0.002
668.00	-0.000	0.001	0.002	0.001	0.004	0.002	-0.000	0.001	0.001	0.000	0.000	0.001	0.000	0.001	0.002
669.00	-0.000	0.001	0.002	0.001	0.005	0.002	0.000	0.001	0.001	0.000	0.000	0.001	0.001	0.001	0.002
670.00	-0.000	0.001	0.002	0.001	0.004	0.002	0.000	0.001	0.001	0.000	0.000	0.001	0.001	0.001	0.002
671.00	-0.000	0.001	0.002	0.001	0.004	0.002	0.000	0.001	0.001	0.000	0.000	0.001	0.000	0.001	0.002
672.00	-0.000	0.001	0.002	0.001	0.004	0.002	0.000	0.001	0.001	0.000	-0.000	0.001	0.000	0.001	0.002
673.00	-0.000	0.000	0.002	0.001	0.004	0.002	0.000	0.001	0.001	0.000	-0.000	0.001	0.000	0.001	0.002
674.00	-0.000	0.001	0.002	0.001	0.005	0.002	0.000	0.001	0.002	0.000	-0.000	0.001	0.000	0.001	0.002
675.00	-0.000	0.001	0.002	0.001	0.005	0.002	0.000	0.001	0.002	0.000	0.000	0.001	0.001	0.001	0.002
676.00	0.000	0.001	0.002	0.001	0.005	0.002	0.000	0.001	0.001	0.000	0.000	0.001	0.001	0.001	0.002
677.00	-0.000	0.000	0.002	0.001	0.004	0.002	0.000	0.001	0.001	0.000	-0.000	0.001	0.000	0.001	0.002
678.00	-0.000	0.001	0.002	0.001	0.004	0.002	0.000	0.001	0.001	0.000	-0.000	0.001	0.000	0.001	0.002
679.00	-0.000	0.001	0.002	0.001	0.004	0.002	0.000	0.001	0.001	0.000	-0.000	0.001	0.001	0.001	0.002
680.00	-0.000	0.001	0.002	0.001	0.004	0.002	0.000	0.001	0.002	0.000	0.000	0.001	0.001	0.001	0.002
681.00	-0.000	0.001	0.002	0.001	0.004	0.002	0.000	0.001	0.001	0.000	0.000	0.001	0.000	0.001	0.002
682.00	-0.000	0.001	0.002	0.001	0.004	0.002	0.000	0.001	0.001	0.000	0.000	0.001	0.000	0.001	0.002
683.00	-0.000	0.001	0.002	0.001	0.004	0.002	0.000	0.001	0.001	0.000	0.000	0.001	0.000	0.001	0.002
684.00	-0.000	0.001	0.002	0.001	0.004	0.002	0.000	0.001	0.001	0.000	-0.000	0.001	0.000	0.001	0.002
685.00	-0.000	0.001	0.002	0.001	0.004	0.002	0.000	0.001	0.001	0.000	0.000	0.001	0.000	0.001	0.002
686.00	-0.000	0.001	0.002	0.001	0.004	0.002	0.000	0.001	0.001	0.000	0.000	0.001	0.000	0.001	0.002
687.00	-0.000	0.000	0.002	0.001	0.004	0.002	0.000	0.001	0.001	0.000	-0.000	0.001	0.000	0.001	0.002
688.00	-0.000	0.000	0.001	0.001	0.004	0.002	-0.000	0.001	0.001	0.000	-0.000	0.001	0.000	0.001	0.002
689.00	-0.000	0.000	0.001	0.001	0.004	0.002	0.000	0.001	0.001	0.000	-0.000	0.001	0.000	0.001	0.002
690.00	-0.000	0.000	0.001	0.001	0.004	0.002	0.000	0.001	0.001	0.000	0.000	0.001	0.000	0.001	0.002
691.00	-0.000	0.000	0.002	0.001	0.004	0.002	0.000	0.001	0.001	0.000	-0.000	0.001	0.000	0.001	0.002
692.00	-0.000	0.000	0.002	0.001	0.004	0.002	0.000	0.001	0.001	0.000	-0.000	0.001	0.000	0.001	0.002
693.00	-0.000	0.000	0.001	0.001	0.004	0.002	0.000	0.001	0.001	0.000	-0.000	0.001	0.000	0.001	0.002
694.00	-0.000	0.000	0.001	0.001	0.004	0.002	-0.000	0.001	0.001	0.000	-0.000	0.001	0.000	0.001	0.002
695.00	-0.000	0.000	0.001	0.001	0.004	0.002	0.000	0.001	0.001	0.000	-0.000	0.001	0.000	0.001	0.002
696.00	-0.000	0.000	0.001	0.001	0.004	0.002	0.000	0.001	0.001	0.000	-0.000	0.001	0.000	0.001	0.002
697.00	-0.000	0.001	0.002	0.001	0.004	0.002	0.000	0.001	0.001	0.000	-0.000	0.001	0.000	0.001	0.002
698.00	-0.000	0.001	0.002	0.001	0.004	0.002	0.000	0.001	0.001	0.000	-0.000	0.001	0.000	0.001	0.002
699.00	-0.000	0.000	0.001	0.001	0.004	0.002	0.000	0.001	0.001	0.000	-0.000	0.001	0.000	0.001	0.002
700.00	-0.000	0.000	0.001	0.001	0.004	0.002	0.000	0.001	0.001	0.000	-0.000	0.001	0.000	0.001	0.002
701.00	-0.000	0.000	0.001	0.001	0.004	0.002	0.000	0.001	0.001	0.000	-0.000	0.001	0.000	0.001	0.002
702.00	-0.000	0.000	0.001	0.001	0.004	0.002	0.000	0.001	0.001	0.000	-0.000	0.001	0.000	0.001	0.002
703.00	-0.000	0.000	0.001	0.001	0.004	0.002	0.000	0.001	0.001	0.000	-0.000	0.001	0.000	0.001	0.002
704.00	-0.000	0.000	0.001	0.001	0.004	0.002	0.000	0.001	0.001	0.000	-0.000	0.001	0.000	0.001	0.002
705.00	-0.000	0.000	0.001	0.001	0.004	0.002	-0.000	0.001	0.001	0.000	-0.000	0.001	0.000	0.001	0.002
706.00	-0.000	0.000	0.001	0.001	0.004	0.002	0.000	0.001	0.001	0.000	-0.000	0.001	0.000	0.001	0.002
707.00	-0.000	0.000	0.001	0.001	0.004	0.002	0.000	0.001	0.001	0.000	-0.000	0.001	0.000	0.001	0.002
708.00	-0.000	0.000	0.001	0.001	0.004	0.002	0.000	0.001	0.001	0.000	-0.000	0.001	0.000	0.001	0.002
709.00	-0.000	0.000	0.001	0.001	0.004	0.002	0.000	0.001	0.001	0.000	-0.000	0.001	0.000	0.001	0.002
710.00	-0.000	0.000	0.001	0.001	0.004	0.002	0.000	0.001	0.001	0.000	-0.000	0.001	0.000	0.001	0.002
711.00	-0.000	0.000	0.001	0.001	0.004	0.002	0.000	0.001	0.001	0.000	-0.000	0.001	0.000	0.001	0.002
712.00	-0.000	0.000	0.001	0.001	0.004	0.002	0.000	0.001	0.001	0.000	-0.000	0.001	0.000	0.001	0.002
713.00	-0.000	0.000	0.001	0.001	0.004	0.002	0.000	0.001	0.001	0.000	-0.000	0.001	0.000	0.001	0.002
714.00	-0.000	0.000	0.001	0.001	0.004	0.002	0.000	0.001	0.001	0.000	-0.000	0.001	0.000	0.001	0.002
715.00	-0.000	0.000	0.001	0.001	0.004	0.002	0.000	0.001	0.001	0.000	-0.000	0.001	0.000	0.001	0.002
716.00	-0.000	0.000	0.001	0.001	0.004	0.002	-0.000	0.001	0.001	0.000	-0.000	0.001	0.000	0.001	0.002
717.00	-0.000	0.000	0.001	0.001	0.004	0.002	0.000	0.001	0.001	0.000	-0.000	0.001	0.000	0.001	0.002
718.00	-0.000	0.000	0.001	0.001	0.004	0.002	0.000	0.001	0.001	0.000	-0.000	0.001	0.000	0.001	0.002
719.00	-0.000	0.000	0.001	0.001	0.004	0.002	0.000	0.001	0.001	0.000	-0.000	0.001	0.000	0.001	0.002
720.00	-0.000	0.000	0.001	0.001	0.004	0.002	0.000	0.001	0.001	0.000	-0.000	0.001	0.000	0.001	0.002
721.00	-0.000	0.000	0.001	0.001	0.004	0.002	0.000	0.001	0.001	0.000	-0.000	0.001	0.000	0.001	0.002
722.00	-0.000	0.000	0.001	0.001	0.004	0.002	0.000	0.001	0.001	0.000	-0.000	0.001	0.000	0.001	0.002
723.00	-0.000	0.000	0.001	0.001	0.004	0.002	0.000	0.001	0.001	0.000	-0.000	0.000	0.000	0.001	0.002
724.00	-0.000	0.000	0.001	0.001	0.004	0.002	0.000	0.001	0.001	0.000	-0.000	0.001	0.000	0.001	0.002
725.00	-0.000	0.000	0.001	0.001	0.004	0.002	0.000	0.001	0.001	0.000	-0.000	0.001	0.000	0.001	0.002
726.00	-0.000	0.000	0.001	0.001	0.004	0.002	0.000	0.001	0.001	0.000	-0.000	0.001	0.000	0.001	0.002
727.00	-0.000	0.000	0.001	0.001	0.004	0.002	0.000	0.001	0.001	0.000	-0.000	0.001	0.000	0.001	0.002
728.00	-0.000	0.000	0.001	0.001	0.004	0.002	0.000	0.001	0.001	0.000	-0.000	0.001	0.000	0.001	0.002
729.00	-0.000	0.000	0.001	0.001	0.004	0.002	0.000	0.001	0.001	0.000	-0.000	0.001	0.000	0.001	0.002
730.00	-0.000	0.000	0.001	0.001	0.004	0.002	0.000	0.001	0.001	0.000	-0.000	0.001	0.000	0.001	0.002
731.00	-0.000	0.000	0.001	0.001	0.004	0.002	0.000	0.001	0.001	0.000	-0.000	0.001	0.000	0.001	0.002
732.00	-0.000	0.000	0.001	0.001	0.004	0.002	0.000	0.001	0.001	0.000	-0.000	0.001	0.000	0.001	0.002
733.00	-0.000	0.000	0.001	0.000	0.004	0.002	-0.000	0.001	0.001	0.000	-0.000	0.001	0.000	0.001	0.002
734.00	-0.000	0.000	0.001	0.001	0.004	0.002	-0.000	0.001	0.001	0.000	-0.000	0.001	0.000	0.001	0.002
735.00	-0.000	0.000	0.001	0.001	0.004	0.002	0.000	0.001	0.001	0.000	-0.000	0.001	0.000	0.001	0.002
736.00	-0.000	0.000	0.001	0.001	0.004	0.002	-0.000	0.001	0.001	0.000	-0.000	0.001	0.000	0.001	0.002
737.00	-0.000	0.000	0.001	0.000	0.004	0.002	-0.000	0.001	0.001	0.000	-0.000	0.000	0.000	0.001	0.002
738.00	-0.000	0.000	0.001	0.001	0.004	0.002	-0.000	0.001	0.001	0.000	-0.000	0.000	0.000	0.001	0.002
739.00	-0.000	0.000	0.001	0.001	0.004	0.002	0.000	0.001	0.001	0.000	-0.000	0.001	0.000	0.001	0.002
740.00	-0.000	0.000	0.001	0.001	0.004	0.002	0.000	0.001	0.001	0.000	-0.000	0.001	0.000	0.001	0.002
741.00	-0.000	0.000	0.001	0.001	0.004	0.002	0.000	0.001	0.001	0.000	-0.000	0.001	0.000	0.001	0.002
742.00	-0.000	0.000	0.001	0.001	0.004	0.002	-0.000	0.001	0.001	0.000	-0.000	0.001	0.000	0.001	0.002
743.00	-0.000	0.000	0.001	0.001	0.004	0.002	0.000	0.001	0.001	0.000	-0.000	0.001	0.000	0.001	0.002
744.00	-0.000	0.000	0.001	0.001	0.004	0.002	0.000	0.001	0.001	0.000	-0.000	0.001	0.000	0.001	0.002
745.00	-0.000	0.000	0.001	0.001	0.004	0.002	0.000	0.001	0.001	0.000	-0.000	0.001	0.000	0.001	0.002
746.00	-0.000	0.000	0.001	0.001	0.004	0.002	0.000	0.001	0.001	0.000	-0.000	0.001	0.000	0.001	0.002
747.00	-0.000	0.000	0.001	0.001	0.004	0.002	-0.000	0.001	0.001	0.000	-0.000	0.001	0.000	0.001	0.002
748.00	-0.000	0.000	0.001	0.001	0.004	0.002	-0.000	0.001	0.001	0.000	-0.000	0.001	0.000	0.001	0.002
749.00	-0.000	0.000	0.001	0.001	0.004	0.002	-0.000	0.001	0.001	0.000	-0.000	0.001	0.000	0.001	0.002
750.00	-0.000	0.000	0.001	0.001	0.004	0.002	-0.000	0.001	0.001	0.000	-0.000	0.001	0.000	0.001	0.002
751.00	-0.000	0.000	0.001	0.001	0.004	0.002	0.000	0.001	0.001	0.000	-0.000	0.001	0.000	0.001	0.002
752.00	-0.000	0.000	0.001	0.001	0.004	0.002	0.000	0.001	0.001	0.000	-0.000	0.001	0.000	0.001	0.002
753.00	-0.000	0.000	0.001	0.001	0.004	0.001	-0.000	0.001	0.001	0.000	-0.000	0.001	0.000	0.001	0.002
754.00	-0.000	0.000	0.001	0.001	0.004	0.002	-0.000	0.001	0.001	0.000	-0.000	0.001	0.000	0.001	0.002
755.00	-0.000	0.000	0.001	0.001	0.004	0.002	-0.000	0.001	0.001	0.000	-0.000	0.001	0.000	0.001	0.002
756.00	-0.000	0.000	0.001	0.001	0.004	0.002	-0.000	0.001	0.001	0.000	-0.000	0.001	0.000	0.001	0.002
757.00	-0.000	0.000	0.001	0.001	0.004	0.002	-0.000	0.001	0.001	0.000	-0.000	0.001	0.000	0.001	0.002
758.00	-0.000	0.000	0.001	0.001	0.004	0.001	-0.000	0.001	0.001	0.000	-0.000	0.001	0.000	0.001	0.002
759.00	0.000	0.001	0.001	0.001	0.004	0.002	0.000	0.001	0.001	0.000	0.000	0.001	0.001	0.001	0.002
760.00	0.001	0.001	0.002	0.002	0.005	0.003	0.001	0.002	0.002	0.001	0.001	0.002	0.001	0.002	0.003
761.00	0.000	0.000	0.002	0.001	0.004	0.002	0.000	0.001	0.001	0.000	0.000	0.001	0.001	0.001	0.002
762.00	-0.000	0.000	0.001	0.001	0.004	0.002	-0.000	0.001	0.001	0.000	-0.000	0.001	0.000	0.001	0.002
763.00	-0.000	0.000	0.001	0.001	0.004	0.002	0.000	0.001	0.001	0.000	-0.000	0.001	0.000	0.001	0.002
764.00	-0.000	0.000	0.001	0.001	0.004	0.002	0.000	0.001	0.001	0.000	-0.000	0.001	0.000	0.001	0.002
765.00	-0.000	0.000	0.001	0.001	0.004	0.002	0.000	0.001	0.001	0.000	-0.000	0.001	0.000	0.001	0.002
766.00	-0.000	0.000	0.001	0.001	0.004	0.002	0.000	0.001	0.001	0.000	-0.000	0.001	0.000	0.001	0.002
767.00	-0.000	0.000	0.001	0.001	0.004	0.002	0.000	0.001	0.001	0.000	-0.000	0.001	0.000	0.001	0.002
768.00	-0.000	0.000	0.001	0.001	0.004	0.002	0.000	0.001	0.001	0.000	-0.000	0.001	0.000	0.001	0.002
769.00	-0.000	0.000	0.001	0.001	0.004	0.002	0.000	0.001	0.001	0.000	0.000	0.001	0.000	0.001	0.002
770.00	-0.000	0.000	0.001	0.001	0.004	0.002	0.000	0.001	0.001	0.000	-0.000	0.001	0.000	0.001	0.002
771.00	-0.000	0.000	0.001	0.001	0.004	0.002	0.000	0.001	0.001	0.000	-0.000	0.001	0.000	0.001	0.002
772.00	0.000	0.000	0.001	0.001	0.004	0.002	0.000	0.001	0.001	0.000	0.000	0.001	0.000	0.001	0.002
773.00	0.000	0.000	0.002	0.001	0.004	0.002	0.000	0.001	0.001	0.000	0.000	0.001	0.000	0.001	0.002
774.00	-0.000	0.000	0.002	0.001	0.004	0.002	0.000	0.001	0.001	0.000	-0.000	0.001	0.000	0.001	0.002
775.00	-0.000	0.000	0.001	0.001	0.004	0.002	0.000	0.001	0.001	0.000	-0.000	0.001	0.000	0.001	0.002
776.00	-0.000	0.000	0.001	0.001	0.004	0.002	0.000	0.001	0.001	0.000	0.000	0.001	0.000	0.001	0.002
777.00	0.000	0.000	0.002	0.001	0.004	0.002	0.000	0.001	0.001	0.000	0.000	0.001	0.001	0.001	0.002
778.00	0.000	0.000	0.002	0.001	0.004	0.002	0.000	0.001	0.001	0.000	0.000	0.001	0.001	0.001	0.002
779.00	0.000	0.000	0.001	0.001	0.004	0.002	0.000	0.001	0.001	0.000	0.000	0.001	0.001	0.001	0.002
780.00	0.000	0.000	0.001	0.001	0.004	0.002	0.000	0.001	0.001	0.000	0.000	0.001	0.001	0.001	0.002
781.00	0.000	0.000	0.001	0.001	0.004	0.002	0.000	0.001	0.001	0.000	0.000	0.001	0.001	0.001	0.002
782.00	0.000	0.000	0.002	0.001	0.004	0.002	0.000	0.001	0.001	0.000	0.000	0.001	0.001	0.001	0.002
783.00	0.000	0.000	0.001	0.001	0.004	0.002	0.000	0.001	0.001	0.000	0.000	0.001	0.001	0.001	0.002
784.00	0.000	0.000	0.001	0.001	0.004	0.002	0.000	0.001	0.001	0.000	0.000	0.001	0.001	0.001	0.002
785.00	-0.000	0.000	0.001	0.001	0.004	0.001	-0.000	0.001	0.001	0.000	0.000	0.001	0.000	0.001	0.002
786.00	0.000	0.000	0.001	0.001	0.004	0.001	0.000	0.001	0.001	0.000	0.000	0.001	0.000	0.001	0.002
787.00	0.000	0.000	0.001	0.001	0.004	0.001	0.000	0.001	0.001	0.000	0.000	0.001	0.000	0.001	0.002
788.00	-0.000	0.000	0.001	0.001	0.004	0.001	0.000	0.001	0.001	0.000	0.000	0.001	0.000	0.001	0.002
789.00	0.000	0.000	0.002	0.001	0.004	0.002	0.000	0.001	0.001	0.000	0.000	0.001	0.001	0.001	0.002
790.00	0.000	0.000	0.002	0.001	0.004	0.002	0.000	0.001	0.001	0.000	0.000	0.001	0.001	0.001	0.002
791.00	0.000	0.000	0.001	0.001	0.004	0.001	0.000	0.001	0.001	0.000	0.000	0.001	0.001	0.001	0.002
792.00	0.000	0.000	0.001	0.001	0.004	0.002	0.000	0.001	0.001	0.000	0.000	0.001	0.001	0.001	0.002
793.00	0.000	0.000	0.001	0.001	0.004	0.002	0.000	0.001	0.001	0.000	0.000	0.001	0.001	0.001	0.002
794.00	-0.000	0.000	0.001	0.001	0.004	0.002	0.000	0.001	0.001	0.000	0.000	0.001	0.001	0.001	0.002
795.00	0.000	0.000	0.001	0.001	0.004	0.002	0.000	0.001	0.001	0.000	0.000	0.001	0.001	0.001	0.002
796.00	0.000	0.000	0.001	0.001	0.004	0.002	0.000	0.001	0.001	0.000	0.000	0.001	0.001	0.001	0.002
797.00	0.000	0.000	0.001	0.001	0.004	0.002	0.000	0.001	0.001	0.000	0.000	0.001	0.001	0.001	0.002
798.00	0.000	0.000	0.001	0.001	0.004	0.002	0.000	0.001	0.001	0.000	0.000	0.001	0.001	0.001	0.002
799.00	0.000	0.000	0.001	0.001	0.004	0.002	0.000	0.001	0.001	0.000	0.000	0.001	0.001	0.001	0.002
800.00	-0.000	0.000	0.001	0.001	0.004	0.001	0.000	0.001	0.001	0.000	0.000	0.001	0.000	0.001	0.002
801.00	-0.000	0.000	0.001	0.001	0.004	0.001	0.000	0.001	0.001	0.000	0.000	0.001	0.001	0.001	0.002
802.00	0.000	0.000	0.001	0.001	0.004	0.002	0.000	0.001	0.001	0.000	0.000	0.001	0.001	0.001	0.002
803.00	0.000	0.000	0.001	0.001	0.004	0.002	0.000	0.001	0.001	0.000	0.000	0.001	0.001	0.001	0.002
804.00	0.000	0.000	0.001	0.001	0.004	0.001	0.000	0.001	0.001	0.000	0.000	0.001	0.001	0.001	0.002
805.00	0.000	0.000	0.001	0.001	0.004	0.001	0.000	0.001	0.001	0.000	0.000	0.001	0.001	0.001	0.002
806.00	0.000	0.000	0.001	0.001	0.004	0.002	0.000	0.001	0.001	0.000	0.000	0.001	0.001	0.001	0.002
807.00	0.000	0.000	0.002	0.001	0.004	0.002	0.000	0.001	0.001	0.000	0.000	0.001	0.001	0.001	0.002
808.00	0.000	0.000	0.002	0.001	0.004	0.002	0.000	0.001	0.001	0.000	0.000	0.001	0.001	0.001	0.002
809.00	0.000	0.000	0.001	0.001	0.004	0.001	0.000	0.001	0.001	0.000	0.000	0.001	0.001	0.001	0.002
810.00	0.000	0.000	0.001	0.001	0.004	0.002	0.000	0.001	0.001	0.000	0.000	0.001	0.001	0.001	0.002
811.00	-0.000	0.000	0.001	0.001	0.004	0.001	0.000	0.001	0.001	0.000	0.000	0.001	0.001	0.001	0.002
812.00	-0.000	0.000	0.001	0.001	0.004	0.001	0.000	0.001	0.001	0.000	0.000	0.001	0.001	0.001	0.002
813.00	0.000	0.000	0.001	0.001	0.004	0.002	0.000	0.001	0.001	0.000	0.000	0.001	0.001	0.001	0.002
814.00	0.000	0.000	0.001	0.001	0.004	0.001	0.000	0.001	0.001	0.000	0.000	0.001	0.001	0.001	0.002
815.00	0.000	0.000	0.001	0.001	0.004	0.002	0.000	0.001	0.001	0.000	0.000	0.001	0.001	0.001	0.002
816.00	0.000	0.000	0.002	0.001	0.004	0.002	0.000	0.001	0.001	0.001	0.000	0.001	0.001	0.001	0.002
817.00	0.000	0.000	0.002	0.001	0.004	0.002	0.000	0.001	0.001	0.000	0.000	0.001	0.001	0.001	0.002
818.00	0.000	0.000	0.001	0.001	0.004	0.002	0.000	0.001	0.001	0.000	0.000	0.001	0.001	0.001	0.002
819.00	0.000	0.000	0.002	0.001	0.004	0.002	0.000	0.001	0.001	0.000	0.000	0.001	0.001	0.001	0.002
820.00	0.000	0.000	0.001	0.001	0.004	0.002	0.000	0.001	0.001	0.001	0.000	0.001	0.001	0.001	0.002
821.00	0.000	0.000	0.001	0.001	0.004	0.002	0.000	0.001	0.001	0.000	0.000	0.001	0.001	0.001	0.002
822.00	0.000	0.000	0.001	0.001	0.004	0.002	0.000	0.001	0.001	0.000	0.000	0.001	0.001	0.001	0.002
823.00	0.000	0.000	0.001	0.001	0.004	0.002	0.000	0.001	0.001	0.000	0.000	0.001	0.001	0.001	0.002
824.00	0.000	0.000	0.001	0.001	0.004	0.002	0.000	0.001	0.001	0.000	0.000	0.001	0.001	0.001	0.002
825.00	0.000	0.000	0.001	0.001	0.004	0.002	0.000	0.001	0.001	0.000	0.000	0.001	0.001	0.001	0.002
826.00	0.000	0.000	0.001	0.001	0.004	0.002	0.000	0.001	0.001	0.000	0.000	0.001	0.001	0.001	0.002
827.00	0.000	0.000	0.002	0.001	0.004	0.002	0.000	0.001	0.001	0.001	0.000	0.001	0.001	0.001	0.002
828.00	0.000	0.000	0.002	0.001	0.004	0.002	0.000	0.001	0.001	0.001	0.000	0.001	0.001	0.001	0.002
829.00	0.000	0.000	0.001	0.001	0.004	0.002	0.000	0.001	0.001	0.000	0.000	0.001	0.001	0.001	0.002
830.00	0.000	0.000	0.001	0.001	0.004	0.002	0.000	0.001	0.001	0.000	-0.000	0.001	0.001	0.001	0.002
831.00	0.000	0.000	0.001	0.001	0.003	0.002	0.000	0.001	0.001	0.000	-0.000	0.001	0.001	0.001	0.002
832.00	0.000	0.000	0.001	0.001	0.003	0.001	0.000	0.001	0.001	0.000	0.000	0.001	0.001	0.001	0.002
833.00	-0.000	0.000	0.001	0.001	0.003	0.001	0.000	0.001	0.001	0.000	0.000	0.001	0.000	0.001	0.002
834.00	0.000	0.000	0.001	0.001	0.003	0.002	0.000	0.001	0.001	0.000	0.000	0.001	0.001	0.001	0.002
835.00	0.000	0.000	0.001	0.001	0.004	0.002	0.000	0.001	0.001	0.000	0.000	0.001	0.001	0.001	0.002
836.00	0.000	0.000	0.001	0.001	0.004	0.002	0.000	0.001	0.001	0.000	0.000	0.001	0.001	0.001	0.002
837.00	0.000	0.000	0.001	0.001	0.003	0.002	0.000	0.001	0.001	0.000	0.000	0.001	0.001	0.001	0.002
838.00	0.000	0.000	0.001	0.001	0.003	0.002	0.000	0.001	0.001	0.000	0.000	0.001	0.001	0.001	0.002
839.00	0.000	0.000	0.001	0.001	0.003	0.002	0.000	0.001	0.001	0.000	0.000	0.001	0.001	0.001	0.002
840.00	-0.000	0.000	0.001	0.001	0.003	0.001	0.000	0.001	0.001	0.000	-0.000	0.001	0.001	0.001	0.002
841.00	-0.000	0.000	0.001	0.001	0.003	0.001	0.000	0.001	0.001	0.000	-0.000	0.001	0.000	0.001	0.002
842.00	-0.000	0.000	0.001	0.001	0.003	0.002	0.000	0.001	0.001	0.000	0.000	0.001	0.001	0.001	0.002
843.00	-0.000	0.000	0.001	0.001	0.003	0.001	0.000	0.001	0.001	0.000	-0.000	0.001	0.001	0.001	0.002
844.00	0.000	0.000	0.001	0.001	0.003	0.001	0.000	0.001	0.001	0.000	0.000	0.001	0.001	0.001	0.002
845.00	-0.000	0.000	0.001	0.001	0.003	0.002	0.000	0.001	0.001	0.000	-0.000	0.001	0.001	0.001	0.002
846.00	0.000	0.000	0.001	0.001	0.003	0.002	0.000	0.001	0.001	0.000	-0.000	0.001	0.001	0.001	0.002
847.00	-0.000	0.000	0.001	0.001	0.003	0.001	0.000	0.001	0.001	0.000	-0.000	0.001	0.001	0.001	0.002
848.00	-0.000	0.000	0.001	0.001	0.003	0.002	0.000	0.001	0.001	0.000	-0.000	0.001	0.001	0.001	0.002
849.00	0.000	0.000	0.001	0.001	0.003	0.002	0.000	0.001	0.001	0.000	0.000	0.001	0.001	0.001	0.002
850.00	0.000	0.000	0.001	0.001	0.003	0.002	0.000	0.001	0.001	0.000	-0.000	0.001	0.001	0.001	0.002
