Wavelength nm.	RawData ...	RawData ...	RawData ...	RawData ...	RawData ...	RawData ...	RawData ...	RawData ...
190.00	0.009	0.263	0.254	0.417	0.468	0.260	0.424	0.424
191.00	0.008	0.247	0.244	0.388	0.435	0.248	0.388	0.387
192.00	0.008	0.231	0.235	0.357	0.402	0.238	0.354	0.356
193.00	0.008	0.216	0.225	0.324	0.369	0.227	0.318	0.321
194.00	0.007	0.203	0.216	0.296	0.343	0.218	0.292	0.295
195.00	0.007	0.191	0.209	0.271	0.320	0.210	0.267	0.270
196.00	0.007	0.182	0.203	0.250	0.301	0.204	0.246	0.251
197.00	0.007	0.174	0.199	0.231	0.284	0.198	0.229	0.232
198.00	0.006	0.166	0.194	0.216	0.268	0.194	0.213	0.216
199.00	0.006	0.160	0.191	0.203	0.255	0.190	0.201	0.202
200.00	0.006	0.155	0.187	0.192	0.244	0.187	0.190	0.191
201.00	0.005	0.150	0.184	0.181	0.233	0.183	0.179	0.181
202.00	0.005	0.145	0.181	0.172	0.224	0.180	0.170	0.172
203.00	0.005	0.141	0.179	0.164	0.217	0.177	0.162	0.166
204.00	0.004	0.138	0.176	0.157	0.209	0.174	0.156	0.159
205.00	0.004	0.134	0.173	0.151	0.202	0.171	0.150	0.153
206.00	0.004	0.131	0.171	0.146	0.196	0.169	0.145	0.148
207.00	0.004	0.128	0.168	0.141	0.190	0.166	0.140	0.144
208.00	0.004	0.125	0.165	0.137	0.185	0.163	0.136	0.139
209.00	0.004	0.122	0.163	0.132	0.178	0.160	0.132	0.135
210.00	0.004	0.119	0.160	0.128	0.173	0.158	0.127	0.131
211.00	0.003	0.116	0.157	0.125	0.168	0.155	0.124	0.127
212.00	0.003	0.113	0.154	0.120	0.162	0.152	0.120	0.124
213.00	0.003	0.109	0.152	0.117	0.157	0.149	0.116	0.120
214.00	0.003	0.106	0.149	0.113	0.151	0.146	0.112	0.117
215.00	0.003	0.104	0.147	0.110	0.145	0.143	0.109	0.113
216.00	0.003	0.101	0.144	0.106	0.140	0.140	0.106	0.110
217.00	0.003	0.098	0.141	0.103	0.135	0.138	0.103	0.107
218.00	0.003	0.095	0.139	0.100	0.130	0.136	0.100	0.104
219.00	0.003	0.093	0.137	0.097	0.125	0.134	0.097	0.102
220.00	0.003	0.090	0.135	0.094	0.121	0.131	0.094	0.099
221.00	0.003	0.088	0.133	0.092	0.116	0.129	0.091	0.096
222.00	0.003	0.086	0.131	0.089	0.112	0.127	0.089	0.094
223.00	0.003	0.084	0.129	0.087	0.108	0.125	0.086	0.092
224.00	0.003	0.082	0.127	0.085	0.105	0.123	0.084	0.089
225.00	0.003	0.080	0.125	0.083	0.101	0.122	0.082	0.087
226.00	0.003	0.078	0.123	0.081	0.098	0.120	0.080	0.085
227.00	0.002	0.076	0.122	0.079	0.095	0.118	0.078	0.083
228.00	0.002	0.075	0.120	0.077	0.092	0.116	0.076	0.081
229.00	0.002	0.073	0.118	0.075	0.089	0.114	0.074	0.079
230.00	0.002	0.071	0.116	0.073	0.087	0.112	0.072	0.078
231.00	0.002	0.070	0.114	0.071	0.085	0.111	0.071	0.076
232.00	0.002	0.069	0.113	0.070	0.083	0.109	0.069	0.075
233.00	0.002	0.068	0.111	0.068	0.081	0.107	0.068	0.073
234.00	0.002	0.067	0.110	0.067	0.079	0.106	0.067	0.072
235.00	0.002	0.065	0.108	0.066	0.077	0.104	0.065	0.071
236.00	0.002	0.064	0.107	0.065	0.076	0.103	0.064	0.070
237.00	0.002	0.063	0.105	0.063	0.074	0.101	0.063	0.068
238.00	0.002	0.062	0.104	0.062	0.073	0.100	0.062	0.067
239.00	0.002	0.061	0.102	0.061	0.072	0.099	0.061	0.066
240.00	0.002	0.060	0.101	0.060	0.071	0.097	0.060	0.065
241.00	0.002	0.060	0.100	0.060	0.070	0.096	0.059	0.064
242.00	0.002	0.059	0.098	0.059	0.069	0.095	0.058	0.063
243.00	0.002	0.058	0.097	0.058	0.068	0.094	0.058	0.063
244.00	0.002	0.057	0.096	0.057	0.067	0.093	0.057	0.062
245.00	0.002	0.057	0.095	0.057	0.066	0.091	0.056	0.061
246.00	0.002	0.056	0.094	0.056	0.065	0.090	0.055	0.060
247.00	0.002	0.055	0.093	0.055	0.064	0.089	0.055	0.060
248.00	0.001	0.054	0.091	0.055	0.064	0.088	0.054	0.059
249.00	0.001	0.054	0.091	0.054	0.063	0.087	0.054	0.059
250.00	0.002	0.053	0.090	0.053	0.062	0.087	0.053	0.058
251.00	0.002	0.053	0.089	0.053	0.062	0.086	0.053	0.058
252.00	0.002	0.053	0.088	0.053	0.061	0.085	0.053	0.057
253.00	0.002	0.052	0.087	0.052	0.061	0.084	0.052	0.057
254.00	0.001	0.052	0.086	0.052	0.060	0.083	0.051	0.056
255.00	0.002	0.051	0.086	0.051	0.060	0.083	0.051	0.056
256.00	0.002	0.051	0.085	0.051	0.059	0.082	0.051	0.055
257.00	0.001	0.050	0.084	0.050	0.059	0.081	0.050	0.055
258.00	0.001	0.050	0.084	0.050	0.058	0.080	0.050	0.054
259.00	0.002	0.050	0.083	0.050	0.058	0.080	0.049	0.054
260.00	0.002	0.049	0.082	0.049	0.057	0.079	0.049	0.053
261.00	0.002	0.049	0.082	0.049	0.057	0.079	0.049	0.053
262.00	0.002	0.048	0.081	0.048	0.056	0.078	0.048	0.052
263.00	0.002	0.048	0.080	0.047	0.055	0.077	0.047	0.051
264.00	0.001	0.047	0.079	0.047	0.055	0.076	0.047	0.051
265.00	0.001	0.047	0.079	0.046	0.054	0.075	0.046	0.051
266.00	0.001	0.046	0.078	0.046	0.054	0.075	0.046	0.050
267.00	0.002	0.046	0.077	0.045	0.053	0.074	0.045	0.050
268.00	0.002	0.045	0.077	0.045	0.052	0.073	0.045	0.049
269.00	0.002	0.045	0.076	0.044	0.052	0.072	0.044	0.048
270.00	0.002	0.044	0.075	0.044	0.051	0.072	0.044	0.048
271.00	0.001	0.044	0.074	0.043	0.051	0.071	0.043	0.047
272.00	0.001	0.043	0.074	0.042	0.050	0.070	0.042	0.046
273.00	0.001	0.043	0.073	0.041	0.049	0.069	0.042	0.046
274.00	0.002	0.042	0.072	0.041	0.049	0.068	0.041	0.045
275.00	0.002	0.042	0.072	0.040	0.048	0.068	0.040	0.044
276.00	0.001	0.041	0.071	0.039	0.047	0.067	0.039	0.044
277.00	0.001	0.041	0.070	0.039	0.046	0.066	0.039	0.043
278.00	0.001	0.040	0.069	0.038	0.046	0.065	0.038	0.042
279.00	0.001	0.040	0.069	0.037	0.045	0.065	0.037	0.041
280.00	0.001	0.039	0.068	0.037	0.044	0.064	0.037	0.041
281.00	0.001	0.039	0.067	0.036	0.044	0.063	0.036	0.040
282.00	0.001	0.038	0.066	0.035	0.043	0.062	0.035	0.039
283.00	0.001	0.038	0.066	0.035	0.042	0.061	0.034	0.039
284.00	0.001	0.037	0.065	0.034	0.041	0.061	0.034	0.038
285.00	0.001	0.037	0.064	0.033	0.041	0.060	0.033	0.037
286.00	0.001	0.036	0.063	0.033	0.040	0.059	0.032	0.036
287.00	0.001	0.035	0.063	0.032	0.039	0.058	0.032	0.035
288.00	0.001	0.035	0.062	0.031	0.039	0.058	0.031	0.035
289.00	0.001	0.035	0.061	0.030	0.038	0.057	0.030	0.034
290.00	0.001	0.034	0.060	0.030	0.037	0.056	0.029	0.033
291.00	0.002	0.034	0.060	0.029	0.037	0.055	0.029	0.033
292.00	0.002	0.033	0.059	0.029	0.036	0.055	0.028	0.032
293.00	0.001	0.033	0.058	0.028	0.035	0.054	0.028	0.031
294.00	0.001	0.032	0.057	0.027	0.035	0.053	0.027	0.031
295.00	0.001	0.032	0.057	0.027	0.034	0.052	0.027	0.030
296.00	0.001	0.031	0.056	0.026	0.033	0.051	0.026	0.029
297.00	0.001	0.031	0.055	0.025	0.033	0.051	0.025	0.029
298.00	0.001	0.030	0.055	0.025	0.032	0.050	0.025	0.028
299.00	0.001	0.030	0.054	0.025	0.032	0.050	0.024	0.028
300.00	0.001	0.030	0.054	0.024	0.031	0.049	0.024	0.027
301.00	0.001	0.029	0.053	0.024	0.031	0.048	0.023	0.027
302.00	0.001	0.029	0.053	0.023	0.030	0.048	0.023	0.026
303.00	0.001	0.028	0.052	0.023	0.030	0.047	0.022	0.026
304.00	0.001	0.028	0.051	0.022	0.029	0.046	0.022	0.025
305.00	0.001	0.028	0.051	0.022	0.029	0.046	0.022	0.025
306.00	0.001	0.027	0.050	0.021	0.028	0.045	0.021	0.025
307.00	0.001	0.027	0.050	0.021	0.028	0.045	0.021	0.024
308.00	0.001	0.027	0.049	0.020	0.027	0.044	0.020	0.024
309.00	0.001	0.026	0.049	0.020	0.027	0.043	0.020	0.023
310.00	0.001	0.026	0.048	0.019	0.026	0.042	0.019	0.023
311.00	0.001	0.025	0.047	0.019	0.026	0.042	0.019	0.022
312.00	0.001	0.025	0.047	0.019	0.025	0.042	0.019	0.022
313.00	0.001	0.025	0.046	0.019	0.025	0.041	0.018	0.022
314.00	0.001	0.025	0.046	0.019	0.025	0.041	0.018	0.021
315.00	0.001	0.024	0.045	0.018	0.024	0.040	0.017	0.021
316.00	0.001	0.024	0.045	0.018	0.024	0.039	0.017	0.020
317.00	0.001	0.024	0.044	0.017	0.024	0.039	0.017	0.020
318.00	0.001	0.023	0.044	0.017	0.023	0.038	0.017	0.020
319.00	0.001	0.023	0.043	0.017	0.023	0.038	0.016	0.019
320.00	0.001	0.023	0.043	0.016	0.022	0.037	0.016	0.020
321.00	0.001	0.023	0.042	0.016	0.022	0.037	0.016	0.019
322.00	0.000	0.022	0.041	0.016	0.022	0.036	0.015	0.019
323.00	0.001	0.022	0.041	0.015	0.021	0.036	0.015	0.018
324.00	0.001	0.022	0.041	0.015	0.021	0.035	0.015	0.018
325.00	0.001	0.021	0.040	0.015	0.021	0.035	0.015	0.018
326.00	0.001	0.021	0.040	0.015	0.021	0.035	0.015	0.018
327.00	0.001	0.021	0.039	0.015	0.020	0.034	0.014	0.017
328.00	0.001	0.021	0.039	0.014	0.020	0.034	0.014	0.017
329.00	0.001	0.021	0.039	0.014	0.020	0.033	0.014	0.017
330.00	0.001	0.020	0.038	0.014	0.020	0.033	0.014	0.016
331.00	0.001	0.020	0.038	0.014	0.020	0.032	0.014	0.016
332.00	0.001	0.020	0.037	0.014	0.019	0.032	0.013	0.016
333.00	0.001	0.020	0.036	0.013	0.019	0.031	0.013	0.016
334.00	0.001	0.019	0.036	0.013	0.018	0.031	0.013	0.016
335.00	0.001	0.019	0.036	0.013	0.018	0.030	0.012	0.015
336.00	0.001	0.019	0.036	0.013	0.018	0.030	0.012	0.015
337.00	0.001	0.019	0.035	0.012	0.018	0.030	0.012	0.015
338.00	0.001	0.019	0.035	0.013	0.018	0.029	0.012	0.015
339.00	0.001	0.019	0.034	0.013	0.018	0.029	0.012	0.015
340.00	0.003	0.020	0.035	0.014	0.019	0.030	0.014	0.016
341.00	0.001	0.018	0.034	0.012	0.017	0.029	0.012	0.015
342.00	0.001	0.017	0.033	0.011	0.017	0.028	0.011	0.014
343.00	0.001	0.017	0.033	0.011	0.016	0.027	0.011	0.014
344.00	0.001	0.017	0.033	0.011	0.016	0.027	0.011	0.014
345.00	0.001	0.017	0.032	0.011	0.016	0.026	0.011	0.013
346.00	0.001	0.017	0.032	0.011	0.016	0.026	0.011	0.013
347.00	0.001	0.016	0.031	0.011	0.015	0.026	0.010	0.013
348.00	0.001	0.016	0.031	0.010	0.015	0.026	0.010	0.013
349.00	0.001	0.016	0.030	0.010	0.015	0.025	0.010	0.012
350.00	0.001	0.016	0.030	0.010	0.015	0.025	0.010	0.012
351.00	0.001	0.015	0.030	0.010	0.014	0.024	0.010	0.012
352.00	0.001	0.016	0.029	0.010	0.014	0.024	0.010	0.012
353.00	0.001	0.015	0.029	0.010	0.014	0.024	0.009	0.011
354.00	0.001	0.015	0.029	0.010	0.014	0.023	0.009	0.011
355.00	0.001	0.015	0.028	0.009	0.014	0.023	0.009	0.011
356.00	0.001	0.015	0.028	0.009	0.014	0.023	0.009	0.011
357.00	0.001	0.014	0.028	0.009	0.013	0.022	0.009	0.011
358.00	0.001	0.014	0.027	0.009	0.013	0.022	0.009	0.011
359.00	0.001	0.014	0.027	0.009	0.013	0.022	0.009	0.011
360.00	0.001	0.014	0.026	0.008	0.013	0.021	0.008	0.010
361.00	0.001	0.014	0.026	0.008	0.012	0.021	0.008	0.010
362.00	0.001	0.014	0.026	0.008	0.012	0.021	0.008	0.010
363.00	0.001	0.014	0.026	0.008	0.012	0.021	0.008	0.010
364.00	0.001	0.013	0.026	0.008	0.012	0.020	0.008	0.010
365.00	0.001	0.013	0.025	0.008	0.012	0.020	0.008	0.010
366.00	0.001	0.013	0.025	0.008	0.012	0.020	0.008	0.009
367.00	0.001	0.013	0.025	0.008	0.012	0.019	0.007	0.009
368.00	0.001	0.012	0.024	0.008	0.011	0.019	0.007	0.009
369.00	0.001	0.012	0.024	0.007	0.011	0.019	0.007	0.009
370.00	0.001	0.012	0.024	0.007	0.011	0.019	0.007	0.009
371.00	0.001	0.012	0.023	0.007	0.011	0.018	0.007	0.009
372.00	0.001	0.012	0.023	0.007	0.011	0.018	0.007	0.009
373.00	0.001	0.012	0.023	0.007	0.011	0.018	0.007	0.009
374.00	0.001	0.012	0.023	0.007	0.010	0.018	0.007	0.008
375.00	0.001	0.012	0.023	0.007	0.010	0.017	0.007	0.008
376.00	0.001	0.011	0.022	0.006	0.010	0.017	0.007	0.008
377.00	0.001	0.011	0.022	0.007	0.010	0.017	0.007	0.008
378.00	0.001	0.011	0.022	0.007	0.010	0.017	0.006	0.008
379.00	0.001	0.011	0.022	0.007	0.010	0.017	0.006	0.008
380.00	0.001	0.011	0.021	0.006	0.010	0.016	0.006	0.008
381.00	0.001	0.011	0.021	0.006	0.010	0.016	0.006	0.008
382.00	0.001	0.011	0.021	0.006	0.010	0.016	0.006	0.008
383.00	0.001	0.011	0.021	0.006	0.010	0.016	0.006	0.007
384.00	0.001	0.011	0.021	0.006	0.010	0.016	0.006	0.007
385.00	0.001	0.010	0.020	0.006	0.009	0.015	0.006	0.007
386.00	0.001	0.010	0.020	0.006	0.009	0.015	0.006	0.007
387.00	0.001	0.010	0.020	0.006	0.009	0.015	0.006	0.007
388.00	0.001	0.010	0.020	0.006	0.009	0.015	0.006	0.007
389.00	0.001	0.010	0.020	0.006	0.009	0.015	0.005	0.007
390.00	0.001	0.010	0.019	0.005	0.009	0.014	0.005	0.006
391.00	0.001	0.010	0.019	0.005	0.008	0.014	0.005	0.006
392.00	0.001	0.009	0.019	0.005	0.008	0.014	0.005	0.006
393.00	0.001	0.009	0.019	0.005	0.008	0.014	0.005	0.006
394.00	0.001	0.009	0.018	0.005	0.008	0.014	0.005	0.006
395.00	0.001	0.009	0.018	0.005	0.008	0.014	0.005	0.006
396.00	0.001	0.009	0.018	0.005	0.008	0.013	0.005	0.006
397.00	0.001	0.009	0.018	0.005	0.008	0.013	0.005	0.006
398.00	0.001	0.009	0.018	0.005	0.008	0.013	0.005	0.006
399.00	0.001	0.009	0.017	0.005	0.007	0.013	0.005	0.006
400.00	0.001	0.009	0.017	0.005	0.007	0.013	0.005	0.006
401.00	0.001	0.009	0.017	0.005	0.007	0.012	0.004	0.006
402.00	0.001	0.009	0.017	0.005	0.007	0.012	0.004	0.006
403.00	0.001	0.008	0.017	0.004	0.007	0.012	0.005	0.005
404.00	0.001	0.008	0.017	0.004	0.007	0.012	0.004	0.005
405.00	0.001	0.008	0.016	0.004	0.007	0.012	0.004	0.005
406.00	0.001	0.008	0.016	0.004	0.007	0.012	0.004	0.005
407.00	0.001	0.008	0.016	0.004	0.007	0.011	0.004	0.005
408.00	0.001	0.008	0.016	0.004	0.007	0.011	0.004	0.005
409.00	0.001	0.008	0.016	0.004	0.007	0.011	0.004	0.005
410.00	0.001	0.008	0.016	0.004	0.007	0.011	0.004	0.005
411.00	0.001	0.008	0.015	0.004	0.007	0.011	0.004	0.005
412.00	0.001	0.008	0.015	0.004	0.007	0.011	0.004	0.005
413.00	0.001	0.008	0.015	0.004	0.007	0.011	0.004	0.005
414.00	0.001	0.008	0.015	0.004	0.007	0.011	0.004	0.005
415.00	0.001	0.008	0.015	0.004	0.006	0.010	0.004	0.005
416.00	0.001	0.008	0.015	0.004	0.006	0.010	0.004	0.004
417.00	0.000	0.007	0.014	0.004	0.006	0.010	0.004	0.004
418.00	0.001	0.007	0.014	0.004	0.006	0.010	0.004	0.004
419.00	0.001	0.007	0.014	0.003	0.006	0.010	0.003	0.004
420.00	0.001	0.007	0.014	0.004	0.006	0.010	0.003	0.004
421.00	0.001	0.007	0.014	0.003	0.006	0.010	0.003	0.004
422.00	0.001	0.007	0.014	0.003	0.006	0.010	0.003	0.004
423.00	0.001	0.007	0.014	0.003	0.006	0.009	0.003	0.004
424.00	0.001	0.007	0.014	0.003	0.006	0.009	0.003	0.004
425.00	0.001	0.007	0.014	0.003	0.006	0.009	0.003	0.004
426.00	0.000	0.007	0.013	0.003	0.006	0.009	0.003	0.004
427.00	0.001	0.007	0.013	0.003	0.006	0.009	0.003	0.004
428.00	0.000	0.006	0.013	0.003	0.005	0.009	0.003	0.004
429.00	0.000	0.006	0.013	0.003	0.005	0.009	0.003	0.004
430.00	0.000	0.006	0.013	0.003	0.005	0.009	0.003	0.003
431.00	0.000	0.006	0.013	0.003	0.005	0.009	0.003	0.003
432.00	0.000	0.006	0.013	0.003	0.005	0.008	0.003	0.003
433.00	0.000	0.006	0.012	0.003	0.005	0.008	0.003	0.003
434.00	0.000	0.006	0.012	0.003	0.005	0.008	0.003	0.003
435.00	0.000	0.006	0.012	0.003	0.005	0.008	0.003	0.003
436.00	0.000	0.006	0.012	0.003	0.005	0.008	0.003	0.003
437.00	0.001	0.006	0.012	0.003	0.005	0.008	0.003	0.003
438.00	0.001	0.006	0.012	0.003	0.005	0.008	0.003	0.003
439.00	0.000	0.006	0.012	0.003	0.005	0.008	0.003	0.003
440.00	0.001	0.006	0.012	0.003	0.005	0.008	0.003	0.003
441.00	0.000	0.006	0.011	0.002	0.004	0.008	0.003	0.003
442.00	0.000	0.006	0.011	0.003	0.004	0.008	0.002	0.003
443.00	0.000	0.006	0.011	0.002	0.004	0.008	0.002	0.003
444.00	0.000	0.006	0.011	0.002	0.004	0.008	0.002	0.003
445.00	0.000	0.006	0.011	0.002	0.004	0.007	0.002	0.003
446.00	0.000	0.006	0.011	0.002	0.004	0.007	0.002	0.003
447.00	0.000	0.006	0.011	0.002	0.004	0.007	0.002	0.003
448.00	0.000	0.005	0.011	0.002	0.004	0.007	0.002	0.003
449.00	0.000	0.005	0.011	0.002	0.004	0.007	0.002	0.003
450.00	0.001	0.005	0.011	0.002	0.004	0.007	0.002	0.003
451.00	0.001	0.005	0.011	0.002	0.004	0.007	0.002	0.003
452.00	0.000	0.005	0.011	0.002	0.004	0.007	0.002	0.003
453.00	0.000	0.005	0.010	0.002	0.004	0.007	0.002	0.003
454.00	0.001	0.005	0.010	0.002	0.004	0.007	0.002	0.003
455.00	0.001	0.005	0.010	0.002	0.004	0.007	0.002	0.003
456.00	0.001	0.005	0.010	0.002	0.004	0.007	0.002	0.003
457.00	0.001	0.005	0.010	0.002	0.004	0.007	0.002	0.003
458.00	0.001	0.005	0.010	0.002	0.004	0.007	0.002	0.003
459.00	0.001	0.005	0.010	0.002	0.004	0.007	0.002	0.003
460.00	0.001	0.005	0.010	0.002	0.004	0.007	0.002	0.003
461.00	0.001	0.005	0.010	0.002	0.004	0.007	0.002	0.003
462.00	0.001	0.005	0.010	0.002	0.004	0.006	0.002	0.002
463.00	0.001	0.005	0.010	0.002	0.004	0.006	0.002	0.002
464.00	0.001	0.005	0.010	0.002	0.004	0.006	0.002	0.002
465.00	0.001	0.005	0.010	0.002	0.004	0.006	0.002	0.002
466.00	0.001	0.005	0.010	0.002	0.004	0.006	0.002	0.002
467.00	0.001	0.005	0.010	0.002	0.004	0.006	0.002	0.002
468.00	0.001	0.005	0.010	0.002	0.004	0.006	0.002	0.002
469.00	0.001	0.005	0.010	0.002	0.004	0.006	0.002	0.002
470.00	0.001	0.005	0.009	0.002	0.004	0.006	0.002	0.002
471.00	0.001	0.005	0.009	0.002	0.004	0.006	0.002	0.002
472.00	0.001	0.005	0.009	0.002	0.004	0.006	0.002	0.002
473.00	0.001	0.005	0.009	0.002	0.004	0.006	0.002	0.002
474.00	0.001	0.005	0.009	0.002	0.004	0.006	0.002	0.002
475.00	0.001	0.005	0.009	0.002	0.004	0.006	0.002	0.002
476.00	0.001	0.005	0.009	0.002	0.004	0.006	0.002	0.002
477.00	0.001	0.005	0.009	0.002	0.003	0.006	0.002	0.002
478.00	0.001	0.005	0.009	0.002	0.003	0.006	0.002	0.002
479.00	0.001	0.005	0.009	0.002	0.003	0.006	0.002	0.002
480.00	0.001	0.005	0.009	0.002	0.003	0.006	0.002	0.002
481.00	0.001	0.005	0.009	0.002	0.003	0.006	0.002	0.002
482.00	0.000	0.005	0.009	0.002	0.003	0.006	0.002	0.002
483.00	0.000	0.004	0.009	0.002	0.003	0.005	0.002	0.002
484.00	0.000	0.004	0.009	0.002	0.003	0.005	0.002	0.002
485.00	0.000	0.004	0.009	0.002	0.003	0.005	0.002	0.002
486.00	0.000	0.004	0.009	0.002	0.003	0.005	0.002	0.002
487.00	0.000	0.004	0.009	0.002	0.003	0.005	0.002	0.002
488.00	0.000	0.004	0.008	0.001	0.003	0.005	0.002	0.002
489.00	0.000	0.004	0.008	0.001	0.003	0.005	0.001	0.002
490.00	0.000	0.004	0.008	0.002	0.003	0.005	0.002	0.002
491.00	0.001	0.004	0.008	0.001	0.003	0.005	0.001	0.002
492.00	0.000	0.004	0.008	0.002	0.003	0.005	0.001	0.002
493.00	0.000	0.004	0.008	0.001	0.003	0.005	0.001	0.002
494.00	0.000	0.004	0.008	0.001	0.003	0.005	0.001	0.002
495.00	0.000	0.004	0.008	0.001	0.003	0.005	0.001	0.002
496.00	0.001	0.004	0.008	0.001	0.003	0.005	0.001	0.002
497.00	0.000	0.004	0.008	0.001	0.003	0.005	0.001	0.002
498.00	0.000	0.004	0.008	0.001	0.003	0.005	0.001	0.002
499.00	0.000	0.004	0.008	0.001	0.003	0.005	0.001	0.002
500.00	0.000	0.004	0.008	0.001	0.003	0.005	0.001	0.002
501.00	0.000	0.004	0.008	0.001	0.003	0.005	0.001	0.002
502.00	0.000	0.004	0.008	0.001	0.003	0.005	0.001	0.002
503.00	0.000	0.004	0.008	0.001	0.003	0.005	0.001	0.002
504.00	0.000	0.004	0.008	0.001	0.003	0.005	0.001	0.002
505.00	0.000	0.004	0.008	0.001	0.003	0.005	0.001	0.002
506.00	0.000	0.004	0.008	0.001	0.003	0.005	0.001	0.002
507.00	0.000	0.004	0.008	0.001	0.003	0.005	0.001	0.001
508.00	0.000	0.004	0.008	0.001	0.003	0.004	0.001	0.001
509.00	0.000	0.004	0.008	0.001	0.003	0.005	0.001	0.002
510.00	0.000	0.004	0.008	0.001	0.003	0.004	0.001	0.002
511.00	0.000	0.004	0.007	0.001	0.003	0.004	0.001	0.002
512.00	0.000	0.004	0.008	0.001	0.003	0.004	0.001	0.002
513.00	0.000	0.004	0.007	0.001	0.003	0.004	0.001	0.001
514.00	0.000	0.004	0.007	0.001	0.003	0.004	0.001	0.001
515.00	0.000	0.004	0.007	0.001	0.003	0.004	0.001	0.001
516.00	0.000	0.004	0.007	0.001	0.003	0.004	0.001	0.001
517.00	0.000	0.004	0.007	0.001	0.003	0.004	0.001	0.001
518.00	0.000	0.004	0.007	0.001	0.003	0.004	0.001	0.001
519.00	0.000	0.004	0.007	0.001	0.003	0.004	0.001	0.001
520.00	0.000	0.004	0.007	0.001	0.003	0.004	0.001	0.001
521.00	0.000	0.004	0.007	0.001	0.003	0.004	0.001	0.001
522.00	0.000	0.004	0.007	0.001	0.003	0.004	0.001	0.001
523.00	0.000	0.004	0.007	0.001	0.002	0.004	0.001	0.001
524.00	0.000	0.004	0.007	0.001	0.002	0.004	0.001	0.001
525.00	0.000	0.004	0.007	0.001	0.003	0.004	0.001	0.001
526.00	0.000	0.004	0.007	0.001	0.003	0.004	0.001	0.001
527.00	0.000	0.004	0.007	0.001	0.002	0.004	0.001	0.001
528.00	0.000	0.004	0.007	0.001	0.002	0.004	0.001	0.001
529.00	0.000	0.003	0.007	0.001	0.002	0.004	0.001	0.001
530.00	0.000	0.004	0.007	0.001	0.002	0.004	0.001	0.001
531.00	0.000	0.003	0.007	0.001	0.002	0.004	0.001	0.001
532.00	0.000	0.003	0.007	0.001	0.002	0.004	0.001	0.001
533.00	0.000	0.003	0.007	0.001	0.002	0.004	0.001	0.001
534.00	0.000	0.003	0.007	0.001	0.002	0.004	0.001	0.001
535.00	0.000	0.004	0.007	0.001	0.003	0.004	0.001	0.001
536.00	0.001	0.005	0.008	0.002	0.003	0.005	0.002	0.002
537.00	0.000	0.004	0.007	0.001	0.002	0.004	0.001	0.001
538.00	0.000	0.003	0.007	0.001	0.002	0.004	0.001	0.001
539.00	0.000	0.003	0.007	0.001	0.002	0.004	0.001	0.001
540.00	0.000	0.003	0.007	0.001	0.002	0.004	0.001	0.001
541.00	0.000	0.003	0.007	0.001	0.002	0.004	0.001	0.001
542.00	0.000	0.003	0.007	0.001	0.002	0.004	0.001	0.001
543.00	0.000	0.003	0.007	0.001	0.002	0.004	0.001	0.001
544.00	0.000	0.003	0.007	0.001	0.002	0.004	0.001	0.001
545.00	0.000	0.003	0.007	0.001	0.002	0.004	0.001	0.001
546.00	0.000	0.003	0.007	0.001	0.002	0.004	0.001	0.001
547.00	0.000	0.003	0.007	0.001	0.002	0.003	0.001	0.001
548.00	0.000	0.003	0.007	0.001	0.002	0.003	0.001	0.001
549.00	0.000	0.003	0.007	0.001	0.002	0.003	0.001	0.001
550.00	0.000	0.003	0.007	0.001	0.002	0.004	0.001	0.001
551.00	0.000	0.003	0.006	0.001	0.002	0.004	0.001	0.001
552.00	0.000	0.003	0.007	0.001	0.002	0.004	0.001	0.001
553.00	0.000	0.003	0.007	0.001	0.002	0.004	0.001	0.001
554.00	0.000	0.003	0.007	0.001	0.002	0.003	0.001	0.001
555.00	0.000	0.003	0.007	0.001	0.002	0.003	0.001	0.001
556.00	0.000	0.003	0.007	0.001	0.002	0.004	0.001	0.001
557.00	0.000	0.003	0.007	0.001	0.002	0.004	0.001	0.001
558.00	0.000	0.003	0.007	0.001	0.002	0.003	0.001	0.001
559.00	0.000	0.003	0.007	0.001	0.002	0.003	0.001	0.001
560.00	0.000	0.003	0.007	0.001	0.002	0.003	0.001	0.001
561.00	0.000	0.003	0.007	0.001	0.002	0.003	0.001	0.001
562.00	0.000	0.003	0.006	0.001	0.002	0.003	0.001	0.001
563.00	0.000	0.003	0.006	0.001	0.002	0.003	0.001	0.001
564.00	0.000	0.003	0.007	0.001	0.002	0.003	0.001	0.001
565.00	0.000	0.003	0.007	0.001	0.002	0.003	0.001	0.001
566.00	0.000	0.003	0.007	0.001	0.002	0.003	0.001	0.001
567.00	0.000	0.003	0.007	0.001	0.002	0.003	0.001	0.001
568.00	0.000	0.003	0.006	0.001	0.002	0.003	0.001	0.001
569.00	0.000	0.003	0.006	0.001	0.002	0.003	0.001	0.001
570.00	0.000	0.003	0.006	0.001	0.002	0.003	0.001	0.001
571.00	0.000	0.003	0.006	0.001	0.002	0.003	0.001	0.001
572.00	0.000	0.003	0.006	0.001	0.002	0.003	0.001	0.001
573.00	0.000	0.003	0.006	0.001	0.002	0.003	0.001	0.001
574.00	0.000	0.003	0.006	0.001	0.002	0.003	0.001	0.001
575.00	0.000	0.003	0.006	0.001	0.002	0.003	0.001	0.001
576.00	0.000	0.003	0.006	0.001	0.002	0.003	0.001	0.001
577.00	0.000	0.003	0.006	0.001	0.002	0.003	0.001	0.001
578.00	0.000	0.003	0.006	0.001	0.002	0.003	0.001	0.001
579.00	0.000	0.003	0.006	0.001	0.002	0.003	0.001	0.001
580.00	0.000	0.003	0.006	0.001	0.002	0.003	0.001	0.001
581.00	0.001	0.003	0.006	0.001	0.002	0.003	0.001	0.001
582.00	0.001	0.003	0.006	0.001	0.002	0.003	0.001	0.001
583.00	0.000	0.003	0.006	0.001	0.002	0.003	0.001	0.001
584.00	0.000	0.003	0.006	0.001	0.002	0.003	0.001	0.001
585.00	0.000	0.003	0.006	0.001	0.002	0.003	0.001	0.001
586.00	0.000	0.003	0.006	0.001	0.002	0.003	0.001	0.001
587.00	0.000	0.003	0.006	0.001	0.002	0.003	0.001	0.001
588.00	0.000	0.003	0.006	0.001	0.002	0.003	0.001	0.001
589.00	0.000	0.003	0.006	0.001	0.002	0.003	0.001	0.001
590.00	0.000	0.003	0.006	0.001	0.002	0.003	0.001	0.001
591.00	0.000	0.003	0.006	0.001	0.002	0.003	0.001	0.001
592.00	0.000	0.003	0.006	0.001	0.002	0.003	0.001	0.001
593.00	0.000	0.003	0.006	0.001	0.002	0.003	0.001	0.001
594.00	0.000	0.003	0.006	0.001	0.002	0.003	0.001	0.001
595.00	0.000	0.003	0.006	0.001	0.002	0.003	0.001	0.001
596.00	0.000	0.003	0.006	0.001	0.002	0.003	0.001	0.001
597.00	0.000	0.003	0.006	0.001	0.002	0.003	0.001	0.001
598.00	0.000	0.003	0.006	0.001	0.002	0.003	0.001	0.001
599.00	0.000	0.003	0.006	0.001	0.002	0.003	0.001	0.001
600.00	0.000	0.003	0.006	0.001	0.002	0.003	0.001	0.001
601.00	0.000	0.003	0.006	0.001	0.002	0.003	0.001	0.001
602.00	0.000	0.003	0.006	0.001	0.002	0.003	0.001	0.001
603.00	0.000	0.003	0.006	0.001	0.002	0.003	0.001	0.001
604.00	0.000	0.003	0.006	0.001	0.002	0.003	0.001	0.001
605.00	0.000	0.003	0.006	0.001	0.002	0.003	0.001	0.001
606.00	0.000	0.003	0.006	0.001	0.002	0.003	0.001	0.001
607.00	0.000	0.003	0.006	0.001	0.002	0.003	0.001	0.001
608.00	0.000	0.003	0.006	0.001	0.002	0.003	0.001	0.001
609.00	0.000	0.003	0.006	0.001	0.002	0.003	0.001	0.001
610.00	0.000	0.003	0.006	0.001	0.002	0.003	0.001	0.001
611.00	0.000	0.003	0.006	0.001	0.002	0.003	0.001	0.001
612.00	0.000	0.003	0.006	0.001	0.002	0.003	0.001	0.001
613.00	0.000	0.003	0.006	0.001	0.002	0.003	0.001	0.001
614.00	0.000	0.003	0.006	0.001	0.002	0.003	0.001	0.001
615.00	0.000	0.003	0.006	0.001	0.002	0.003	0.001	0.001
616.00	0.000	0.003	0.006	0.001	0.002	0.003	0.001	0.001
617.00	0.000	0.003	0.006	0.001	0.002	0.003	0.001	0.001
618.00	0.000	0.003	0.006	0.001	0.002	0.003	0.001	0.001
619.00	0.000	0.002	0.006	0.001	0.002	0.003	0.001	0.001
620.00	0.000	0.002	0.006	0.001	0.002	0.003	0.001	0.001
621.00	0.000	0.002	0.006	0.001	0.002	0.003	0.001	0.001
622.00	0.000	0.002	0.006	0.001	0.002	0.003	0.001	0.001
623.00	0.000	0.003	0.006	0.001	0.002	0.003	0.001	0.001
624.00	0.000	0.003	0.006	0.001	0.002	0.003	0.001	0.001
625.00	0.000	0.002	0.006	0.001	0.002	0.003	0.001	0.001
626.00	0.000	0.002	0.006	0.000	0.002	0.003	0.001	0.001
627.00	0.000	0.003	0.006	0.001	0.002	0.003	0.001	0.001
628.00	0.000	0.003	0.006	0.001	0.002	0.003	0.001	0.001
629.00	0.000	0.002	0.006	0.001	0.002	0.003	0.001	0.001
630.00	0.000	0.002	0.006	0.001	0.002	0.003	0.001	0.001
631.00	0.000	0.002	0.006	0.001	0.002	0.003	0.001	0.001
632.00	0.000	0.002	0.006	0.001	0.002	0.003	0.001	0.001
633.00	0.000	0.002	0.006	0.001	0.002	0.003	0.001	0.001
634.00	0.000	0.002	0.005	0.000	0.002	0.003	0.001	0.001
635.00	0.000	0.002	0.006	0.001	0.002	0.003	0.001	0.001
636.00	0.000	0.002	0.006	0.000	0.002	0.003	0.001	0.001
637.00	0.000	0.002	0.005	0.000	0.002	0.002	0.001	0.001
638.00	0.000	0.002	0.005	0.000	0.002	0.002	0.001	0.001
639.00	0.000	0.002	0.005	0.000	0.001	0.002	0.001	0.001
640.00	0.000	0.002	0.005	0.000	0.002	0.002	0.001	0.001
641.00	0.000	0.002	0.005	0.000	0.001	0.002	0.000	0.001
642.00	0.000	0.002	0.005	0.000	0.002	0.002	0.000	0.001
643.00	0.000	0.002	0.005	0.000	0.002	0.002	0.000	0.001
644.00	0.000	0.002	0.005	0.000	0.001	0.002	0.000	0.001
645.00	0.000	0.002	0.005	0.000	0.002	0.002	0.000	0.001
646.00	0.000	0.002	0.005	0.000	0.002	0.002	0.001	0.001
647.00	0.000	0.002	0.005	0.000	0.002	0.003	0.001	0.001
648.00	0.000	0.002	0.005	0.000	0.002	0.003	0.001	0.001
649.00	0.000	0.002	0.005	0.000	0.002	0.002	0.001	0.001
650.00	0.000	0.002	0.005	0.000	0.002	0.002	0.001	0.001
651.00	0.000	0.002	0.005	0.000	0.002	0.002	0.001	0.001
652.00	0.000	0.002	0.005	0.000	0.002	0.003	0.001	0.001
653.00	0.000	0.002	0.005	0.000	0.002	0.002	0.001	0.001
654.00	0.000	0.002	0.005	0.001	0.002	0.002	0.001	0.001
655.00	0.000	0.002	0.005	0.001	0.002	0.003	0.001	0.001
656.00	0.000	0.002	0.005	0.000	0.002	0.002	0.001	0.001
657.00	0.000	0.002	0.005	0.000	0.002	0.002	0.001	0.001
658.00	0.000	0.002	0.005	0.000	0.002	0.002	0.001	0.001
659.00	0.000	0.002	0.005	0.000	0.002	0.002	0.001	0.001
660.00	0.000	0.002	0.005	0.000	0.002	0.002	0.001	0.001
661.00	0.000	0.002	0.005	0.000	0.002	0.002	0.001	0.001
662.00	0.000	0.002	0.005	0.000	0.002	0.002	0.001	0.001
663.00	0.000	0.002	0.005	0.000	0.002	0.002	0.001	0.001
664.00	0.000	0.002	0.005	0.000	0.002	0.002	0.001	0.001
665.00	0.000	0.002	0.005	0.000	0.002	0.002	0.001	0.001
666.00	0.000	0.002	0.005	0.000	0.002	0.002	0.001	0.001
667.00	0.000	0.002	0.005	0.000	0.002	0.002	0.000	0.001
668.00	0.000	0.002	0.005	0.000	0.002	0.002	0.001	0.001
669.00	0.000	0.002	0.005	0.000	0.002	0.002	0.001	0.001
670.00	0.000	0.002	0.005	0.000	0.002	0.002	0.001	0.001
671.00	0.000	0.002	0.005	0.000	0.002	0.002	0.001	0.001
672.00	0.000	0.002	0.005	0.000	0.002	0.002	0.001	0.001
673.00	0.000	0.002	0.005	0.001	0.002	0.002	0.001	0.001
674.00	0.000	0.002	0.005	0.000	0.002	0.002	0.001	0.001
675.00	0.000	0.002	0.005	0.000	0.002	0.002	0.000	0.001
676.00	0.000	0.002	0.005	0.000	0.002	0.002	0.001	0.001
677.00	0.000	0.002	0.005	0.001	0.002	0.002	0.001	0.001
678.00	0.000	0.002	0.005	0.001	0.002	0.002	0.001	0.001
679.00	0.000	0.002	0.005	0.001	0.002	0.002	0.001	0.001
680.00	0.000	0.002	0.005	0.001	0.002	0.002	0.001	0.001
681.00	0.000	0.002	0.005	0.001	0.002	0.002	0.001	0.001
682.00	0.000	0.002	0.005	0.000	0.002	0.002	0.001	0.001
683.00	0.000	0.002	0.005	0.000	0.002	0.002	0.001	0.001
684.00	0.000	0.002	0.005	0.000	0.002	0.002	0.001	0.001
685.00	0.000	0.002	0.005	0.000	0.002	0.002	0.000	0.001
686.00	0.000	0.002	0.005	0.000	0.002	0.002	0.001	0.001
687.00	0.000	0.002	0.005	0.000	0.002	0.002	0.001	0.001
688.00	0.000	0.002	0.005	0.001	0.002	0.002	0.001	0.001
689.00	0.000	0.002	0.005	0.001	0.002	0.002	0.001	0.001
690.00	0.000	0.002	0.005	0.000	0.002	0.002	0.001	0.001
691.00	0.000	0.002	0.005	0.000	0.002	0.002	0.001	0.001
692.00	0.000	0.002	0.005	0.000	0.002	0.002	0.001	0.001
693.00	0.000	0.002	0.005	0.000	0.001	0.002	0.001	0.001
694.00	0.000	0.002	0.005	0.000	0.002	0.002	0.001	0.001
695.00	0.000	0.002	0.005	0.000	0.002	0.002	0.001	0.001
696.00	0.000	0.002	0.005	0.001	0.002	0.002	0.001	0.001
697.00	0.000	0.002	0.005	0.000	0.001	0.002	0.001	0.001
698.00	0.000	0.002	0.005	0.000	0.001	0.002	0.001	0.001
699.00	0.000	0.002	0.005	0.000	0.002	0.002	0.001	0.001
700.00	0.000	0.002	0.005	0.001	0.002	0.002	0.001	0.001
701.00	0.000	0.002	0.005	0.001	0.002	0.002	0.001	0.001
702.00	0.000	0.002	0.005	0.000	0.001	0.002	0.001	0.001
703.00	0.000	0.002	0.005	0.000	0.001	0.002	0.001	0.001
704.00	0.000	0.002	0.005	0.000	0.002	0.002	0.001	0.001
705.00	0.000	0.002	0.005	0.000	0.001	0.002	0.001	0.001
706.00	0.000	0.002	0.005	0.001	0.002	0.002	0.001	0.001
707.00	0.000	0.002	0.005	0.001	0.002	0.002	0.001	0.001
708.00	0.000	0.002	0.005	0.000	0.002	0.002	0.001	0.001
709.00	0.000	0.002	0.005	0.001	0.002	0.002	0.001	0.001
710.00	0.000	0.002	0.005	0.001	0.002	0.002	0.001	0.001
711.00	0.000	0.002	0.005	0.001	0.001	0.002	0.001	0.001
712.00	0.000	0.002	0.005	0.000	0.001	0.002	0.001	0.001
713.00	0.000	0.002	0.005	0.000	0.001	0.002	0.000	0.001
714.00	0.000	0.002	0.005	0.001	0.001	0.002	0.001	0.001
715.00	0.000	0.002	0.005	0.001	0.001	0.002	0.001	0.001
716.00	0.000	0.002	0.005	0.001	0.001	0.002	0.001	0.001
717.00	0.000	0.002	0.005	0.001	0.001	0.002	0.001	0.001
718.00	0.000	0.002	0.005	0.000	0.001	0.002	0.001	0.001
719.00	0.000	0.002	0.005	0.000	0.001	0.002	0.001	0.001
720.00	0.000	0.002	0.005	0.000	0.001	0.002	0.001	0.001
721.00	0.000	0.002	0.005	0.000	0.001	0.002	0.001	0.001
722.00	0.000	0.002	0.005	0.000	0.001	0.002	0.001	0.001
723.00	0.000	0.002	0.005	0.001	0.001	0.002	0.001	0.001
724.00	0.000	0.002	0.005	0.001	0.001	0.002	0.001	0.001
725.00	0.000	0.002	0.004	0.000	0.001	0.002	0.001	0.001
726.00	0.000	0.002	0.005	0.000	0.001	0.002	0.001	0.001
727.00	0.000	0.002	0.005	0.000	0.001	0.002	0.001	0.001
728.00	0.000	0.002	0.005	0.000	0.001	0.002	0.001	0.001
729.00	0.000	0.002	0.004	0.000	0.001	0.002	0.001	0.001
730.00	0.000	0.002	0.004	0.000	0.001	0.002	0.001	0.001
731.00	0.000	0.002	0.004	0.000	0.001	0.002	0.001	0.001
732.00	0.000	0.002	0.004	0.000	0.001	0.002	0.000	0.001
733.00	0.000	0.002	0.004	0.000	0.001	0.002	0.000	0.001
734.00	0.000	0.002	0.004	0.000	0.001	0.002	0.001	0.001
735.00	0.000	0.002	0.004	0.000	0.001	0.002	0.001	0.001
736.00	0.000	0.002	0.004	0.000	0.001	0.002	0.001	0.000
737.00	0.000	0.002	0.004	0.000	0.001	0.002	0.001	0.000
738.00	0.000	0.002	0.004	0.000	0.001	0.002	0.001	0.001
739.00	0.000	0.002	0.004	0.000	0.001	0.002	0.001	0.001
740.00	0.000	0.002	0.004	0.000	0.001	0.002	0.001	0.001
741.00	0.000	0.002	0.004	0.000	0.001	0.002	0.001	0.001
742.00	0.000	0.002	0.004	0.000	0.001	0.002	0.001	0.001
743.00	0.000	0.002	0.004	0.000	0.001	0.002	0.001	0.001
744.00	0.000	0.002	0.004	0.000	0.001	0.002	0.001	0.001
745.00	0.000	0.002	0.004	0.000	0.001	0.002	0.001	0.001
746.00	0.000	0.002	0.004	0.000	0.001	0.002	0.001	0.001
747.00	0.000	0.002	0.004	0.000	0.001	0.002	0.001	0.001
748.00	0.000	0.002	0.004	0.000	0.001	0.002	0.001	0.001
749.00	0.000	0.002	0.004	0.000	0.001	0.002	0.001	0.001
750.00	0.000	0.002	0.004	0.000	0.001	0.002	0.001	0.001
751.00	0.000	0.002	0.004	0.000	0.001	0.002	0.001	0.001
752.00	0.000	0.002	0.004	0.000	0.002	0.002	0.001	0.001
753.00	0.000	0.002	0.004	0.001	0.002	0.002	0.001	0.001
754.00	0.000	0.002	0.004	0.000	0.002	0.002	0.001	0.001
755.00	0.000	0.002	0.004	0.001	0.002	0.002	0.001	0.001
756.00	0.000	0.002	0.004	0.001	0.002	0.002	0.001	0.001
757.00	0.000	0.002	0.004	0.001	0.002	0.002	0.001	0.001
758.00	0.000	0.002	0.004	0.000	0.002	0.002	0.001	0.001
759.00	0.001	0.002	0.004	0.001	0.002	0.002	0.001	0.001
760.00	0.002	0.003	0.005	0.002	0.003	0.003	0.002	0.002
761.00	0.001	0.002	0.005	0.001	0.002	0.002	0.001	0.001
762.00	0.000	0.002	0.004	0.001	0.002	0.002	0.001	0.001
763.00	0.000	0.002	0.004	0.000	0.001	0.002	0.001	0.001
764.00	0.000	0.002	0.004	0.000	0.002	0.002	0.001	0.001
765.00	0.000	0.002	0.004	0.001	0.002	0.002	0.001	0.001
766.00	0.000	0.002	0.004	0.001	0.002	0.002	0.001	0.001
767.00	0.000	0.002	0.004	0.000	0.002	0.002	0.001	0.001
768.00	0.000	0.002	0.004	0.000	0.002	0.002	0.001	0.001
769.00	0.000	0.002	0.004	0.001	0.002	0.002	0.001	0.001
770.00	0.000	0.002	0.004	0.001	0.002	0.002	0.001	0.001
771.00	0.000	0.002	0.004	0.000	0.002	0.002	0.001	0.001
772.00	0.000	0.002	0.004	0.001	0.002	0.002	0.001	0.001
773.00	0.000	0.002	0.004	0.001	0.002	0.002	0.001	0.001
774.00	0.000	0.002	0.004	0.001	0.002	0.002	0.001	0.001
775.00	0.000	0.002	0.004	0.001	0.002	0.002	0.001	0.001
776.00	0.000	0.002	0.004	0.000	0.002	0.002	0.001	0.001
777.00	0.000	0.002	0.004	0.000	0.002	0.002	0.001	0.001
778.00	0.000	0.002	0.004	0.001	0.002	0.002	0.001	0.001
779.00	0.000	0.002	0.004	0.001	0.002	0.002	0.001	0.001
780.00	0.000	0.002	0.004	0.001	0.002	0.002	0.001	0.001
781.00	0.000	0.002	0.004	0.000	0.002	0.002	0.000	0.001
782.00	0.000	0.002	0.004	0.001	0.002	0.002	0.001	0.001
783.00	0.000	0.002	0.004	0.000	0.001	0.002	0.001	0.001
784.00	0.000	0.002	0.004	0.000	0.002	0.002	0.001	0.001
785.00	0.000	0.002	0.004	0.001	0.002	0.002	0.001	0.001
786.00	0.000	0.002	0.004	0.001	0.002	0.002	0.001	0.001
787.00	0.000	0.002	0.004	0.001	0.002	0.002	0.001	0.001
788.00	0.000	0.002	0.004	0.001	0.002	0.002	0.001	0.001
789.00	0.000	0.002	0.004	0.001	0.002	0.002	0.001	0.001
790.00	0.000	0.002	0.004	0.001	0.002	0.002	0.001	0.001
791.00	0.000	0.002	0.004	0.001	0.002	0.002	0.001	0.001
792.00	0.000	0.002	0.004	0.000	0.002	0.002	0.001	0.001
793.00	0.000	0.002	0.004	0.000	0.002	0.002	0.001	0.001
794.00	0.000	0.002	0.004	0.000	0.002	0.002	0.001	0.001
795.00	0.000	0.002	0.004	0.001	0.002	0.002	0.001	0.001
796.00	0.000	0.002	0.004	0.001	0.002	0.002	0.001	0.001
797.00	0.000	0.002	0.004	0.001	0.002	0.002	0.001	0.001
798.00	0.000	0.002	0.004	0.001	0.002	0.002	0.001	0.001
799.00	0.000	0.002	0.004	0.001	0.002	0.002	0.001	0.001
800.00	0.000	0.002	0.004	0.001	0.002	0.002	0.001	0.001
801.00	0.000	0.002	0.004	0.001	0.002	0.002	0.001	0.001
802.00	0.000	0.002	0.004	0.001	0.002	0.002	0.001	0.001
803.00	0.000	0.002	0.004	0.001	0.002	0.002	0.001	0.001
804.00	0.000	0.002	0.004	0.001	0.002	0.002	0.001	0.001
805.00	0.000	0.002	0.004	0.001	0.002	0.002	0.001	0.001
806.00	0.000	0.002	0.004	0.001	0.002	0.002	0.001	0.001
807.00	0.000	0.002	0.004	0.001	0.002	0.002	0.001	0.001
808.00	0.000	0.002	0.004	0.001	0.002	0.002	0.001	0.001
809.00	0.000	0.002	0.004	0.001	0.002	0.002	0.001	0.001
810.00	0.000	0.002	0.004	0.001	0.002	0.002	0.001	0.001
811.00	0.000	0.002	0.004	0.001	0.002	0.002	0.001	0.001
812.00	0.000	0.002	0.004	0.001	0.002	0.002	0.001	0.001
813.00	0.000	0.002	0.004	0.001	0.002	0.002	0.001	0.001
814.00	0.000	0.002	0.004	0.001	0.002	0.002	0.001	0.001
815.00	0.000	0.002	0.004	0.001	0.002	0.002	0.001	0.001
816.00	0.000	0.002	0.004	0.001	0.002	0.002	0.001	0.001
817.00	0.000	0.002	0.004	0.001	0.002	0.002	0.001	0.001
818.00	0.000	0.002	0.004	0.001	0.002	0.002	0.001	0.001
819.00	0.000	0.002	0.004	0.001	0.002	0.002	0.001	0.001
820.00	0.000	0.002	0.004	0.001	0.002	0.002	0.001	0.001
821.00	0.000	0.002	0.004	0.001	0.002	0.002	0.001	0.001
822.00	0.000	0.002	0.004	0.001	0.002	0.002	0.001	0.001
823.00	0.000	0.002	0.004	0.001	0.002	0.002	0.001	0.001
824.00	0.000	0.002	0.004	0.001	0.002	0.002	0.001	0.001
825.00	0.000	0.002	0.004	0.001	0.002	0.002	0.001	0.001
826.00	0.000	0.002	0.004	0.001	0.002	0.002	0.001	0.001
827.00	0.000	0.002	0.004	0.001	0.002	0.002	0.001	0.001
828.00	0.000	0.002	0.004	0.001	0.002	0.002	0.001	0.001
829.00	0.000	0.002	0.004	0.001	0.002	0.002	0.001	0.001
830.00	0.000	0.002	0.004	0.001	0.002	0.002	0.001	0.001
831.00	0.000	0.002	0.004	0.001	0.002	0.002	0.001	0.001
832.00	0.000	0.002	0.004	0.001	0.002	0.002	0.001	0.001
833.00	0.000	0.002	0.004	0.000	0.002	0.002	0.001	0.001
834.00	0.000	0.002	0.004	0.000	0.002	0.002	0.001	0.001
835.00	0.000	0.002	0.004	0.000	0.001	0.002	0.001	0.001
836.00	0.000	0.002	0.004	0.000	0.001	0.002	0.001	0.001
837.00	0.000	0.002	0.004	0.001	0.002	0.002	0.001	0.001
838.00	0.000	0.002	0.004	0.000	0.001	0.002	0.001	0.001
839.00	0.000	0.002	0.004	0.000	0.002	0.002	0.001	0.001
840.00	0.000	0.002	0.004	0.000	0.001	0.002	0.001	0.001
841.00	0.000	0.002	0.004	0.000	0.001	0.002	0.001	0.001
842.00	0.000	0.002	0.004	0.000	0.002	0.002	0.001	0.001
843.00	0.000	0.002	0.004	0.000	0.001	0.002	0.000	0.000
844.00	0.000	0.002	0.004	0.000	0.001	0.002	0.001	0.000
845.00	0.000	0.002	0.004	0.000	0.002	0.002	0.001	0.001
846.00	0.000	0.002	0.004	0.000	0.001	0.002	0.001	0.001
847.00	0.000	0.002	0.004	0.000	0.001	0.002	0.001	0.001
848.00	0.000	0.002	0.004	0.000	0.001	0.002	0.001	0.001
849.00	0.000	0.002	0.004	0.000	0.001	0.002	0.001	0.001
850.00	0.000	0.002	0.004	0.000	0.001	0.002	0.001	0.000
