Wavelength nm.	RawData ...	RawData ...	RawData ...	RawData ...	RawData ...	RawData ...	RawData ...	RawData ...	RawData ...	RawData ...	RawData ...	RawData ...	RawData ...	RawData ...	RawData ...
190.00	0.007	0.481	0.403	0.540	0.391	0.393	0.484	0.456	0.395	0.376	0.462	0.405	0.500	0.869	0.387
191.00	0.007	0.438	0.364	0.500	0.355	0.362	0.451	0.422	0.359	0.344	0.443	0.368	0.436	0.721	0.357
192.00	0.009	0.403	0.333	0.462	0.323	0.331	0.415	0.390	0.329	0.315	0.426	0.334	0.381	0.595	0.325
193.00	0.010	0.366	0.301	0.426	0.292	0.295	0.380	0.358	0.296	0.284	0.409	0.301	0.326	0.471	0.292
194.00	0.011	0.338	0.274	0.395	0.267	0.268	0.354	0.333	0.271	0.261	0.394	0.274	0.287	0.390	0.266
195.00	0.012	0.311	0.248	0.367	0.244	0.242	0.328	0.309	0.248	0.238	0.381	0.249	0.252	0.323	0.242
196.00	0.013	0.289	0.227	0.342	0.225	0.220	0.306	0.290	0.229	0.219	0.370	0.228	0.224	0.274	0.221
197.00	0.013	0.270	0.208	0.320	0.207	0.202	0.286	0.272	0.213	0.203	0.359	0.211	0.202	0.240	0.204
198.00	0.013	0.253	0.193	0.301	0.193	0.186	0.269	0.257	0.199	0.188	0.350	0.195	0.183	0.214	0.188
199.00	0.013	0.238	0.179	0.283	0.180	0.174	0.253	0.245	0.186	0.176	0.341	0.183	0.169	0.195	0.175
200.00	0.012	0.226	0.167	0.265	0.169	0.162	0.239	0.235	0.175	0.165	0.333	0.171	0.157	0.179	0.164
201.00	0.009	0.215	0.157	0.249	0.159	0.152	0.228	0.225	0.165	0.155	0.325	0.160	0.148	0.167	0.154
202.00	0.007	0.205	0.148	0.233	0.150	0.143	0.217	0.216	0.156	0.147	0.317	0.152	0.139	0.157	0.145
203.00	0.006	0.197	0.141	0.220	0.143	0.135	0.209	0.208	0.149	0.140	0.310	0.145	0.132	0.150	0.138
204.00	0.005	0.189	0.133	0.208	0.136	0.128	0.201	0.201	0.142	0.133	0.304	0.139	0.125	0.143	0.132
205.00	0.004	0.181	0.127	0.197	0.130	0.122	0.193	0.195	0.136	0.128	0.296	0.133	0.120	0.137	0.126
206.00	0.004	0.175	0.122	0.187	0.124	0.117	0.186	0.188	0.130	0.123	0.288	0.127	0.115	0.133	0.121
207.00	0.004	0.168	0.117	0.178	0.120	0.112	0.180	0.182	0.126	0.118	0.281	0.123	0.111	0.128	0.117
208.00	0.004	0.163	0.113	0.171	0.116	0.109	0.174	0.177	0.122	0.114	0.273	0.119	0.107	0.125	0.113
209.00	0.003	0.157	0.109	0.163	0.112	0.105	0.168	0.171	0.118	0.111	0.265	0.115	0.104	0.121	0.109
210.00	0.003	0.152	0.106	0.155	0.108	0.101	0.162	0.165	0.114	0.108	0.256	0.112	0.101	0.117	0.106
211.00	0.003	0.147	0.102	0.149	0.105	0.098	0.156	0.159	0.110	0.104	0.247	0.109	0.098	0.114	0.103
212.00	0.003	0.142	0.099	0.143	0.102	0.095	0.151	0.153	0.107	0.102	0.237	0.106	0.095	0.111	0.100
213.00	0.003	0.137	0.096	0.138	0.099	0.092	0.145	0.147	0.104	0.099	0.227	0.103	0.092	0.107	0.098
214.00	0.003	0.132	0.094	0.133	0.096	0.090	0.139	0.141	0.101	0.096	0.217	0.100	0.090	0.104	0.095
215.00	0.003	0.127	0.091	0.129	0.093	0.087	0.134	0.135	0.099	0.094	0.207	0.097	0.088	0.102	0.093
216.00	0.003	0.123	0.089	0.125	0.091	0.085	0.129	0.129	0.097	0.092	0.197	0.095	0.085	0.099	0.090
217.00	0.003	0.118	0.086	0.121	0.088	0.083	0.123	0.123	0.094	0.089	0.187	0.092	0.083	0.096	0.088
218.00	0.003	0.114	0.085	0.118	0.086	0.081	0.118	0.118	0.092	0.087	0.178	0.090	0.081	0.094	0.086
219.00	0.003	0.111	0.083	0.115	0.084	0.079	0.114	0.113	0.090	0.085	0.170	0.088	0.080	0.092	0.084
220.00	0.003	0.107	0.081	0.112	0.083	0.077	0.109	0.108	0.088	0.083	0.161	0.086	0.078	0.090	0.082
221.00	0.003	0.104	0.079	0.109	0.081	0.075	0.105	0.104	0.086	0.082	0.153	0.084	0.076	0.088	0.081
222.00	0.003	0.100	0.077	0.107	0.079	0.074	0.101	0.099	0.085	0.080	0.145	0.082	0.075	0.086	0.079
223.00	0.003	0.097	0.076	0.104	0.077	0.072	0.097	0.095	0.083	0.079	0.138	0.081	0.073	0.084	0.078
224.00	0.003	0.095	0.075	0.102	0.076	0.071	0.094	0.091	0.082	0.078	0.132	0.079	0.072	0.083	0.077
225.00	0.003	0.092	0.073	0.100	0.075	0.070	0.090	0.088	0.080	0.076	0.125	0.078	0.071	0.081	0.075
226.00	0.003	0.089	0.071	0.098	0.073	0.068	0.087	0.084	0.079	0.074	0.119	0.076	0.069	0.079	0.074
227.00	0.002	0.087	0.070	0.096	0.072	0.067	0.084	0.081	0.077	0.073	0.114	0.074	0.068	0.078	0.072
228.00	0.002	0.085	0.068	0.094	0.070	0.065	0.081	0.078	0.076	0.072	0.109	0.073	0.067	0.076	0.071
229.00	0.002	0.083	0.067	0.092	0.069	0.064	0.078	0.076	0.075	0.070	0.105	0.072	0.066	0.075	0.070
230.00	0.002	0.081	0.066	0.090	0.068	0.063	0.076	0.073	0.073	0.069	0.100	0.070	0.065	0.074	0.068
231.00	0.002	0.079	0.065	0.088	0.066	0.062	0.074	0.071	0.072	0.068	0.097	0.069	0.063	0.072	0.067
232.00	0.001	0.077	0.063	0.086	0.065	0.061	0.071	0.069	0.071	0.067	0.093	0.068	0.062	0.071	0.066
233.00	0.001	0.075	0.062	0.084	0.064	0.060	0.069	0.067	0.070	0.066	0.090	0.067	0.061	0.070	0.065
234.00	0.001	0.074	0.061	0.083	0.063	0.059	0.068	0.065	0.069	0.065	0.088	0.065	0.060	0.069	0.064
235.00	0.001	0.072	0.060	0.081	0.062	0.058	0.066	0.064	0.068	0.063	0.085	0.064	0.059	0.067	0.063
236.00	0.000	0.071	0.059	0.079	0.061	0.057	0.064	0.062	0.066	0.062	0.083	0.063	0.058	0.066	0.062
237.00	0.000	0.070	0.058	0.078	0.060	0.056	0.063	0.061	0.065	0.061	0.081	0.062	0.057	0.065	0.061
238.00	0.000	0.068	0.057	0.076	0.059	0.055	0.062	0.060	0.064	0.060	0.079	0.061	0.057	0.065	0.060
239.00	0.000	0.067	0.056	0.075	0.058	0.055	0.061	0.059	0.063	0.060	0.077	0.061	0.056	0.064	0.059
240.00	0.000	0.066	0.056	0.074	0.058	0.054	0.060	0.058	0.063	0.059	0.076	0.060	0.055	0.063	0.058
241.00	0.000	0.065	0.055	0.072	0.057	0.053	0.059	0.057	0.062	0.058	0.075	0.059	0.054	0.062	0.058
242.00	0.000	0.064	0.054	0.071	0.056	0.052	0.058	0.056	0.061	0.058	0.073	0.058	0.054	0.062	0.057
243.00	0.000	0.063	0.054	0.070	0.056	0.052	0.057	0.055	0.060	0.057	0.072	0.058	0.053	0.061	0.056
244.00	0.000	0.062	0.053	0.068	0.055	0.051	0.056	0.054	0.060	0.056	0.071	0.057	0.053	0.060	0.056
245.00	0.000	0.061	0.053	0.067	0.054	0.051	0.055	0.054	0.059	0.056	0.070	0.056	0.052	0.060	0.055
246.00	0.000	0.061	0.052	0.066	0.054	0.050	0.054	0.053	0.058	0.055	0.069	0.055	0.051	0.059	0.054
247.00	0.000	0.060	0.051	0.065	0.053	0.050	0.054	0.052	0.057	0.054	0.068	0.055	0.051	0.059	0.054
248.00	-0.000	0.059	0.051	0.064	0.053	0.049	0.053	0.052	0.057	0.054	0.067	0.054	0.051	0.058	0.053
249.00	-0.000	0.058	0.051	0.063	0.053	0.049	0.052	0.051	0.056	0.054	0.067	0.054	0.050	0.058	0.053
250.00	0.000	0.058	0.051	0.062	0.052	0.048	0.052	0.051	0.056	0.053	0.066	0.053	0.050	0.057	0.052
251.00	0.000	0.057	0.050	0.061	0.052	0.048	0.052	0.050	0.055	0.053	0.065	0.053	0.050	0.057	0.052
252.00	-0.000	0.057	0.050	0.061	0.052	0.048	0.051	0.050	0.055	0.053	0.065	0.053	0.049	0.057	0.052
253.00	0.000	0.056	0.049	0.060	0.051	0.047	0.051	0.049	0.054	0.052	0.064	0.052	0.049	0.056	0.051
254.00	-0.000	0.056	0.049	0.059	0.051	0.047	0.050	0.049	0.054	0.052	0.064	0.052	0.048	0.056	0.051
255.00	-0.000	0.055	0.049	0.058	0.051	0.047	0.050	0.048	0.053	0.051	0.063	0.051	0.048	0.055	0.050
256.00	0.000	0.055	0.049	0.058	0.050	0.047	0.049	0.048	0.053	0.051	0.063	0.051	0.048	0.055	0.050
257.00	-0.000	0.054	0.048	0.057	0.050	0.046	0.049	0.047	0.052	0.051	0.062	0.051	0.047	0.055	0.050
258.00	-0.000	0.054	0.048	0.057	0.050	0.046	0.049	0.047	0.052	0.050	0.061	0.050	0.047	0.054	0.049
259.00	0.000	0.053	0.047	0.056	0.049	0.045	0.048	0.047	0.052	0.050	0.061	0.050	0.046	0.054	0.049
260.00	-0.000	0.053	0.047	0.056	0.049	0.045	0.048	0.046	0.051	0.049	0.061	0.050	0.046	0.053	0.048
261.00	0.000	0.052	0.047	0.055	0.048	0.044	0.048	0.046	0.051	0.049	0.060	0.049	0.046	0.053	0.048
262.00	0.000	0.052	0.046	0.055	0.048	0.044	0.047	0.045	0.050	0.049	0.060	0.049	0.045	0.052	0.048
263.00	0.000	0.051	0.046	0.055	0.047	0.044	0.047	0.045	0.050	0.048	0.059	0.048	0.045	0.052	0.047
264.00	0.000	0.051	0.045	0.054	0.047	0.043	0.046	0.044	0.049	0.047	0.059	0.048	0.044	0.051	0.046
265.00	0.000	0.050	0.044	0.053	0.046	0.042	0.046	0.044	0.049	0.046	0.058	0.047	0.043	0.051	0.046
266.00	0.000	0.050	0.044	0.053	0.046	0.042	0.045	0.043	0.048	0.046	0.058	0.047	0.043	0.050	0.045
267.00	0.000	0.049	0.043	0.052	0.045	0.041	0.045	0.043	0.047	0.046	0.057	0.046	0.042	0.049	0.045
268.00	0.000	0.049	0.043	0.052	0.045	0.041	0.044	0.042	0.047	0.045	0.057	0.045	0.041	0.049	0.044
269.00	0.000	0.048	0.042	0.051	0.044	0.040	0.043	0.042	0.046	0.044	0.056	0.045	0.041	0.048	0.044
270.00	0.000	0.048	0.042	0.051	0.044	0.039	0.043	0.041	0.046	0.044	0.056	0.045	0.040	0.048	0.043
271.00	0.000	0.047	0.041	0.050	0.043	0.039	0.042	0.041	0.045	0.043	0.055	0.044	0.040	0.047	0.043
272.00	0.000	0.046	0.040	0.049	0.042	0.038	0.042	0.040	0.044	0.042	0.055	0.043	0.039	0.046	0.042
273.00	0.000	0.046	0.039	0.049	0.041	0.038	0.041	0.040	0.044	0.042	0.054	0.043	0.038	0.046	0.041
274.00	0.000	0.045	0.039	0.048	0.041	0.037	0.041	0.039	0.043	0.041	0.054	0.042	0.038	0.045	0.041
275.00	-0.000	0.045	0.038	0.047	0.040	0.036	0.040	0.038	0.042	0.040	0.053	0.042	0.037	0.044	0.040
276.00	-0.000	0.044	0.037	0.046	0.039	0.036	0.039	0.038	0.041	0.039	0.052	0.041	0.036	0.043	0.039
277.00	-0.000	0.043	0.036	0.046	0.039	0.035	0.039	0.037	0.041	0.039	0.052	0.040	0.035	0.043	0.039
278.00	-0.000	0.043	0.036	0.045	0.038	0.034	0.038	0.036	0.040	0.038	0.051	0.040	0.035	0.042	0.038
279.00	-0.000	0.042	0.035	0.044	0.037	0.033	0.037	0.036	0.039	0.037	0.050	0.039	0.034	0.041	0.037
280.00	-0.000	0.041	0.034	0.043	0.036	0.033	0.036	0.035	0.039	0.036	0.050	0.038	0.033	0.041	0.036
281.00	-0.000	0.041	0.033	0.042	0.036	0.032	0.036	0.035	0.038	0.036	0.049	0.038	0.032	0.040	0.036
282.00	-0.000	0.040	0.033	0.042	0.035	0.031	0.035	0.034	0.037	0.035	0.049	0.037	0.032	0.039	0.035
283.00	-0.000	0.039	0.032	0.041	0.034	0.030	0.034	0.033	0.036	0.034	0.048	0.036	0.031	0.038	0.034
284.00	-0.000	0.039	0.031	0.040	0.033	0.029	0.034	0.032	0.036	0.033	0.047	0.035	0.030	0.037	0.034
285.00	0.000	0.038	0.030	0.039	0.032	0.029	0.033	0.032	0.035	0.033	0.046	0.035	0.029	0.037	0.033
286.00	-0.000	0.037	0.029	0.038	0.032	0.028	0.033	0.032	0.034	0.032	0.046	0.034	0.029	0.036	0.032
287.00	-0.000	0.036	0.029	0.037	0.031	0.028	0.032	0.031	0.034	0.031	0.045	0.034	0.028	0.035	0.032
288.00	-0.000	0.035	0.028	0.036	0.030	0.027	0.031	0.030	0.033	0.030	0.044	0.033	0.027	0.034	0.031
289.00	-0.000	0.035	0.027	0.035	0.030	0.026	0.030	0.030	0.032	0.030	0.044	0.032	0.027	0.034	0.030
290.00	-0.000	0.034	0.027	0.034	0.029	0.025	0.030	0.029	0.031	0.029	0.043	0.032	0.026	0.033	0.030
291.00	-0.000	0.034	0.026	0.033	0.028	0.025	0.029	0.029	0.031	0.028	0.042	0.031	0.025	0.033	0.029
292.00	-0.000	0.033	0.025	0.032	0.028	0.024	0.029	0.028	0.030	0.028	0.042	0.030	0.025	0.032	0.028
293.00	-0.000	0.032	0.025	0.031	0.027	0.024	0.028	0.027	0.029	0.027	0.041	0.030	0.024	0.031	0.027
294.00	-0.000	0.032	0.024	0.031	0.026	0.023	0.027	0.027	0.028	0.026	0.040	0.029	0.023	0.031	0.027
295.00	-0.000	0.031	0.024	0.030	0.026	0.023	0.027	0.026	0.028	0.026	0.040	0.028	0.023	0.030	0.026
296.00	-0.000	0.030	0.023	0.029	0.025	0.022	0.026	0.025	0.027	0.025	0.039	0.028	0.022	0.029	0.026
297.00	-0.000	0.030	0.023	0.028	0.024	0.021	0.026	0.025	0.027	0.025	0.038	0.027	0.022	0.029	0.025
298.00	-0.000	0.029	0.022	0.027	0.024	0.021	0.025	0.024	0.026	0.024	0.038	0.027	0.021	0.028	0.025
299.00	-0.000	0.029	0.021	0.027	0.023	0.020	0.024	0.024	0.025	0.023	0.037	0.026	0.021	0.028	0.024
300.00	-0.000	0.028	0.021	0.026	0.023	0.020	0.024	0.023	0.025	0.023	0.036	0.026	0.021	0.027	0.024
301.00	-0.000	0.028	0.021	0.026	0.022	0.019	0.023	0.023	0.025	0.023	0.036	0.025	0.020	0.027	0.023
302.00	-0.000	0.027	0.020	0.025	0.022	0.019	0.023	0.023	0.024	0.022	0.035	0.025	0.020	0.026	0.023
303.00	-0.000	0.026	0.020	0.024	0.021	0.018	0.022	0.022	0.024	0.021	0.035	0.024	0.019	0.026	0.022
304.00	-0.000	0.026	0.019	0.024	0.021	0.018	0.022	0.022	0.023	0.021	0.034	0.024	0.019	0.025	0.022
305.00	-0.000	0.026	0.019	0.023	0.020	0.018	0.022	0.021	0.022	0.021	0.034	0.023	0.018	0.025	0.022
306.00	-0.000	0.025	0.018	0.022	0.020	0.017	0.021	0.021	0.022	0.020	0.033	0.023	0.018	0.025	0.021
307.00	-0.000	0.024	0.018	0.022	0.019	0.017	0.021	0.020	0.022	0.020	0.032	0.022	0.018	0.024	0.021
308.00	-0.000	0.024	0.018	0.022	0.019	0.016	0.020	0.020	0.021	0.020	0.032	0.022	0.017	0.024	0.020
309.00	-0.000	0.023	0.017	0.021	0.019	0.016	0.020	0.020	0.021	0.019	0.031	0.022	0.017	0.024	0.020
310.00	-0.000	0.023	0.017	0.021	0.018	0.016	0.019	0.019	0.020	0.018	0.030	0.021	0.016	0.023	0.019
311.00	-0.000	0.022	0.017	0.020	0.018	0.015	0.019	0.019	0.020	0.018	0.030	0.021	0.016	0.023	0.019
312.00	-0.000	0.022	0.016	0.020	0.018	0.015	0.018	0.019	0.020	0.018	0.030	0.021	0.016	0.023	0.019
313.00	-0.000	0.022	0.016	0.020	0.017	0.015	0.018	0.018	0.019	0.018	0.029	0.020	0.016	0.022	0.019
314.00	-0.000	0.021	0.016	0.019	0.017	0.015	0.018	0.018	0.019	0.017	0.029	0.020	0.015	0.022	0.018
315.00	-0.000	0.021	0.016	0.019	0.017	0.014	0.017	0.018	0.019	0.017	0.028	0.020	0.015	0.022	0.018
316.00	-0.000	0.021	0.015	0.018	0.017	0.014	0.017	0.017	0.018	0.017	0.028	0.019	0.015	0.021	0.017
317.00	-0.000	0.020	0.015	0.018	0.016	0.014	0.017	0.017	0.018	0.016	0.027	0.019	0.015	0.021	0.017
318.00	-0.000	0.020	0.015	0.018	0.016	0.013	0.016	0.017	0.018	0.016	0.027	0.018	0.014	0.021	0.017
319.00	-0.000	0.020	0.014	0.017	0.015	0.013	0.016	0.016	0.017	0.016	0.026	0.018	0.014	0.020	0.016
320.00	-0.001	0.019	0.014	0.017	0.015	0.013	0.016	0.016	0.017	0.015	0.026	0.018	0.014	0.020	0.016
321.00	-0.000	0.019	0.014	0.017	0.015	0.013	0.016	0.016	0.017	0.015	0.026	0.018	0.013	0.020	0.016
322.00	-0.000	0.019	0.014	0.016	0.015	0.012	0.016	0.016	0.016	0.015	0.025	0.017	0.013	0.020	0.016
323.00	-0.000	0.018	0.013	0.016	0.014	0.012	0.015	0.015	0.016	0.014	0.025	0.017	0.013	0.019	0.015
324.00	-0.000	0.018	0.013	0.016	0.014	0.012	0.015	0.015	0.016	0.014	0.025	0.017	0.013	0.019	0.015
325.00	-0.000	0.018	0.013	0.016	0.014	0.012	0.015	0.015	0.016	0.014	0.025	0.017	0.013	0.019	0.015
326.00	0.000	0.018	0.013	0.015	0.014	0.012	0.014	0.015	0.015	0.014	0.024	0.017	0.012	0.019	0.015
327.00	0.000	0.018	0.013	0.015	0.014	0.012	0.014	0.014	0.015	0.014	0.024	0.016	0.012	0.019	0.015
328.00	-0.000	0.017	0.012	0.015	0.013	0.011	0.014	0.014	0.015	0.013	0.023	0.016	0.012	0.018	0.014
329.00	0.000	0.017	0.012	0.014	0.013	0.011	0.014	0.014	0.015	0.013	0.023	0.016	0.012	0.018	0.014
330.00	-0.000	0.017	0.012	0.014	0.013	0.011	0.013	0.014	0.015	0.013	0.023	0.015	0.011	0.018	0.014
331.00	0.000	0.016	0.012	0.014	0.013	0.011	0.013	0.013	0.014	0.013	0.023	0.015	0.011	0.018	0.014
332.00	-0.000	0.016	0.011	0.014	0.013	0.010	0.013	0.013	0.014	0.012	0.022	0.015	0.011	0.018	0.013
333.00	0.000	0.016	0.011	0.014	0.012	0.010	0.013	0.013	0.014	0.012	0.022	0.015	0.011	0.018	0.013
334.00	-0.000	0.016	0.011	0.013	0.012	0.010	0.013	0.013	0.013	0.012	0.022	0.014	0.011	0.018	0.013
335.00	0.000	0.015	0.011	0.013	0.012	0.010	0.012	0.012	0.013	0.012	0.021	0.014	0.011	0.017	0.013
336.00	-0.000	0.015	0.011	0.013	0.011	0.010	0.012	0.012	0.013	0.011	0.021	0.014	0.010	0.017	0.012
337.00	-0.000	0.015	0.010	0.012	0.011	0.009	0.012	0.012	0.013	0.011	0.020	0.014	0.010	0.017	0.012
338.00	-0.000	0.014	0.010	0.013	0.011	0.009	0.012	0.012	0.012	0.011	0.020	0.013	0.010	0.016	0.012
339.00	0.000	0.015	0.010	0.013	0.011	0.010	0.012	0.012	0.013	0.011	0.020	0.014	0.010	0.016	0.012
340.00	0.001	0.015	0.011	0.013	0.012	0.010	0.012	0.013	0.013	0.012	0.021	0.014	0.011	0.017	0.013
341.00	-0.000	0.014	0.010	0.012	0.010	0.009	0.011	0.011	0.012	0.011	0.019	0.013	0.010	0.016	0.012
342.00	-0.000	0.013	0.010	0.012	0.010	0.009	0.011	0.011	0.012	0.010	0.019	0.013	0.009	0.016	0.011
343.00	-0.000	0.013	0.010	0.011	0.010	0.009	0.011	0.011	0.011	0.010	0.019	0.013	0.009	0.015	0.011
344.00	-0.000	0.013	0.010	0.011	0.010	0.008	0.011	0.011	0.011	0.010	0.019	0.013	0.009	0.016	0.011
345.00	-0.000	0.013	0.009	0.011	0.010	0.008	0.010	0.010	0.011	0.010	0.018	0.012	0.009	0.015	0.010
346.00	-0.000	0.012	0.009	0.011	0.009	0.008	0.010	0.010	0.010	0.009	0.018	0.012	0.009	0.015	0.010
347.00	-0.000	0.013	0.009	0.011	0.010	0.008	0.010	0.010	0.011	0.009	0.018	0.012	0.009	0.015	0.010
348.00	-0.000	0.012	0.009	0.010	0.009	0.008	0.010	0.010	0.010	0.009	0.017	0.012	0.008	0.015	0.010
349.00	-0.000	0.012	0.008	0.010	0.009	0.008	0.009	0.010	0.010	0.009	0.017	0.012	0.008	0.015	0.010
350.00	-0.000	0.012	0.009	0.010	0.009	0.008	0.009	0.010	0.010	0.009	0.017	0.012	0.008	0.015	0.010
351.00	-0.000	0.012	0.008	0.010	0.009	0.008	0.010	0.009	0.010	0.009	0.017	0.011	0.008	0.014	0.009
352.00	-0.000	0.012	0.008	0.010	0.009	0.007	0.009	0.010	0.009	0.009	0.017	0.011	0.008	0.014	0.010
353.00	-0.000	0.011	0.008	0.010	0.009	0.007	0.009	0.009	0.009	0.009	0.016	0.011	0.008	0.015	0.009
354.00	-0.000	0.011	0.008	0.009	0.009	0.007	0.009	0.009	0.009	0.008	0.016	0.011	0.008	0.014	0.009
355.00	-0.000	0.011	0.008	0.009	0.009	0.007	0.009	0.009	0.009	0.008	0.016	0.011	0.008	0.014	0.009
356.00	-0.000	0.010	0.008	0.009	0.008	0.007	0.009	0.009	0.009	0.008	0.015	0.010	0.007	0.014	0.009
357.00	-0.000	0.010	0.007	0.009	0.008	0.007	0.008	0.008	0.009	0.008	0.015	0.010	0.007	0.014	0.008
358.00	-0.000	0.010	0.007	0.009	0.008	0.006	0.008	0.008	0.008	0.008	0.015	0.010	0.007	0.013	0.008
359.00	-0.000	0.010	0.008	0.009	0.008	0.007	0.008	0.008	0.008	0.008	0.015	0.010	0.007	0.014	0.008
360.00	-0.000	0.010	0.007	0.009	0.008	0.006	0.008	0.008	0.008	0.008	0.014	0.010	0.007	0.013	0.008
361.00	-0.001	0.010	0.007	0.009	0.008	0.006	0.008	0.008	0.008	0.007	0.014	0.010	0.007	0.013	0.008
362.00	-0.000	0.010	0.007	0.009	0.008	0.006	0.008	0.008	0.008	0.007	0.014	0.010	0.007	0.013	0.008
363.00	-0.000	0.010	0.007	0.008	0.007	0.006	0.008	0.008	0.008	0.007	0.014	0.009	0.007	0.013	0.008
364.00	-0.000	0.009	0.007	0.008	0.007	0.006	0.008	0.007	0.008	0.007	0.014	0.009	0.006	0.013	0.008
365.00	-0.000	0.009	0.007	0.008	0.007	0.006	0.007	0.007	0.008	0.007	0.013	0.009	0.006	0.013	0.007
366.00	-0.000	0.009	0.007	0.008	0.007	0.006	0.007	0.007	0.007	0.007	0.013	0.009	0.006	0.012	0.007
367.00	-0.000	0.009	0.007	0.008	0.007	0.006	0.007	0.007	0.007	0.007	0.013	0.009	0.006	0.012	0.007
368.00	-0.000	0.009	0.006	0.008	0.007	0.005	0.007	0.007	0.007	0.007	0.013	0.009	0.006	0.012	0.007
369.00	-0.000	0.009	0.006	0.007	0.007	0.005	0.007	0.007	0.007	0.006	0.012	0.008	0.006	0.012	0.007
370.00	-0.000	0.008	0.006	0.007	0.006	0.005	0.007	0.006	0.007	0.006	0.012	0.008	0.006	0.012	0.006
371.00	-0.000	0.008	0.006	0.007	0.006	0.005	0.007	0.006	0.007	0.006	0.012	0.008	0.005	0.012	0.006
372.00	-0.000	0.008	0.006	0.007	0.006	0.005	0.006	0.006	0.007	0.006	0.012	0.008	0.005	0.012	0.006
373.00	-0.000	0.008	0.006	0.007	0.006	0.005	0.006	0.006	0.006	0.006	0.012	0.008	0.006	0.012	0.006
374.00	-0.000	0.008	0.006	0.007	0.006	0.005	0.006	0.006	0.006	0.006	0.012	0.008	0.005	0.012	0.006
375.00	-0.000	0.008	0.006	0.007	0.006	0.005	0.006	0.006	0.006	0.006	0.011	0.008	0.005	0.012	0.006
376.00	-0.000	0.008	0.006	0.007	0.006	0.005	0.006	0.006	0.006	0.006	0.011	0.008	0.005	0.012	0.006
377.00	-0.000	0.008	0.006	0.007	0.006	0.005	0.006	0.006	0.006	0.006	0.011	0.008	0.005	0.012	0.006
378.00	-0.000	0.008	0.006	0.006	0.006	0.005	0.006	0.006	0.006	0.006	0.011	0.007	0.005	0.011	0.006
379.00	-0.000	0.008	0.005	0.007	0.006	0.005	0.006	0.006	0.006	0.006	0.011	0.007	0.005	0.011	0.006
380.00	-0.000	0.007	0.005	0.006	0.006	0.004	0.006	0.005	0.006	0.005	0.011	0.007	0.005	0.011	0.005
381.00	-0.000	0.007	0.005	0.006	0.006	0.005	0.006	0.005	0.006	0.005	0.010	0.007	0.005	0.011	0.005
382.00	-0.000	0.007	0.005	0.006	0.006	0.005	0.006	0.005	0.006	0.005	0.010	0.007	0.005	0.011	0.005
383.00	-0.000	0.007	0.005	0.006	0.005	0.004	0.005	0.005	0.005	0.005	0.010	0.007	0.005	0.011	0.005
384.00	-0.000	0.007	0.005	0.006	0.006	0.004	0.005	0.005	0.005	0.005	0.010	0.007	0.005	0.011	0.005
385.00	-0.000	0.007	0.005	0.006	0.005	0.004	0.005	0.005	0.005	0.005	0.010	0.007	0.004	0.011	0.005
386.00	-0.000	0.007	0.005	0.006	0.005	0.004	0.005	0.005	0.005	0.005	0.010	0.007	0.005	0.011	0.005
387.00	-0.000	0.006	0.005	0.005	0.005	0.004	0.005	0.005	0.005	0.005	0.009	0.006	0.004	0.011	0.005
388.00	-0.000	0.007	0.005	0.006	0.005	0.004	0.005	0.005	0.005	0.005	0.009	0.006	0.004	0.011	0.005
389.00	-0.000	0.006	0.005	0.005	0.005	0.004	0.005	0.005	0.005	0.005	0.009	0.006	0.004	0.010	0.005
390.00	-0.000	0.006	0.005	0.005	0.005	0.004	0.005	0.005	0.005	0.004	0.009	0.006	0.004	0.010	0.004
391.00	-0.000	0.006	0.005	0.005	0.005	0.004	0.005	0.004	0.005	0.004	0.009	0.006	0.004	0.010	0.004
392.00	-0.000	0.006	0.005	0.005	0.005	0.004	0.005	0.004	0.005	0.004	0.009	0.006	0.004	0.010	0.004
393.00	-0.000	0.006	0.004	0.005	0.005	0.004	0.004	0.004	0.005	0.004	0.009	0.006	0.004	0.010	0.004
394.00	-0.000	0.006	0.005	0.005	0.005	0.004	0.005	0.004	0.004	0.004	0.008	0.006	0.004	0.010	0.004
395.00	-0.000	0.006	0.004	0.005	0.005	0.004	0.004	0.004	0.004	0.004	0.008	0.006	0.004	0.010	0.004
396.00	-0.000	0.006	0.004	0.005	0.005	0.003	0.004	0.004	0.004	0.004	0.008	0.006	0.004	0.010	0.004
397.00	-0.000	0.006	0.004	0.005	0.004	0.003	0.004	0.004	0.004	0.004	0.008	0.006	0.004	0.010	0.004
398.00	-0.000	0.006	0.004	0.005	0.004	0.003	0.004	0.004	0.004	0.004	0.008	0.006	0.004	0.010	0.004
399.00	-0.000	0.006	0.004	0.005	0.004	0.003	0.004	0.004	0.004	0.004	0.008	0.006	0.004	0.010	0.004
400.00	-0.000	0.005	0.004	0.005	0.004	0.003	0.004	0.004	0.004	0.004	0.008	0.005	0.003	0.010	0.004
401.00	-0.000	0.005	0.004	0.005	0.004	0.003	0.004	0.004	0.004	0.004	0.008	0.005	0.003	0.010	0.004
402.00	-0.000	0.005	0.004	0.005	0.004	0.003	0.004	0.004	0.004	0.004	0.007	0.005	0.003	0.010	0.004
403.00	-0.000	0.005	0.004	0.005	0.004	0.003	0.004	0.004	0.004	0.004	0.007	0.005	0.003	0.009	0.003
404.00	-0.000	0.005	0.004	0.004	0.004	0.003	0.004	0.004	0.004	0.004	0.007	0.005	0.003	0.009	0.003
405.00	-0.000	0.005	0.004	0.004	0.004	0.003	0.004	0.004	0.004	0.004	0.007	0.005	0.003	0.009	0.003
406.00	-0.000	0.005	0.004	0.004	0.004	0.003	0.004	0.004	0.004	0.004	0.007	0.005	0.003	0.009	0.003
407.00	-0.000	0.005	0.004	0.004	0.004	0.003	0.004	0.004	0.004	0.003	0.007	0.005	0.003	0.009	0.003
408.00	-0.000	0.005	0.004	0.004	0.004	0.003	0.004	0.003	0.003	0.003	0.007	0.005	0.003	0.009	0.003
409.00	-0.000	0.005	0.004	0.004	0.004	0.003	0.003	0.003	0.003	0.003	0.007	0.005	0.003	0.009	0.003
410.00	-0.000	0.005	0.004	0.004	0.004	0.003	0.003	0.003	0.003	0.003	0.007	0.005	0.003	0.009	0.003
411.00	-0.000	0.005	0.004	0.004	0.004	0.003	0.003	0.003	0.003	0.003	0.007	0.005	0.003	0.009	0.003
412.00	-0.000	0.005	0.004	0.004	0.004	0.003	0.003	0.003	0.003	0.003	0.007	0.005	0.003	0.009	0.003
413.00	-0.000	0.005	0.004	0.004	0.004	0.003	0.003	0.003	0.003	0.003	0.006	0.005	0.003	0.009	0.003
414.00	-0.000	0.005	0.003	0.004	0.004	0.003	0.003	0.003	0.003	0.003	0.006	0.005	0.003	0.009	0.003
415.00	-0.000	0.005	0.004	0.004	0.004	0.003	0.003	0.003	0.003	0.003	0.006	0.005	0.003	0.009	0.003
416.00	-0.000	0.004	0.003	0.004	0.004	0.003	0.003	0.003	0.003	0.003	0.006	0.005	0.003	0.009	0.003
417.00	-0.000	0.004	0.003	0.004	0.003	0.003	0.003	0.003	0.003	0.003	0.006	0.004	0.003	0.009	0.003
418.00	-0.000	0.004	0.003	0.004	0.004	0.003	0.003	0.003	0.003	0.003	0.006	0.004	0.003	0.009	0.003
419.00	-0.000	0.004	0.003	0.004	0.003	0.003	0.003	0.003	0.003	0.003	0.006	0.004	0.003	0.009	0.003
420.00	-0.000	0.004	0.003	0.004	0.003	0.003	0.003	0.003	0.003	0.003	0.006	0.004	0.003	0.009	0.003
421.00	-0.000	0.004	0.003	0.003	0.003	0.002	0.003	0.003	0.003	0.003	0.006	0.004	0.003	0.009	0.003
422.00	-0.000	0.004	0.003	0.003	0.003	0.003	0.003	0.003	0.003	0.003	0.006	0.004	0.003	0.009	0.003
423.00	-0.000	0.004	0.003	0.003	0.003	0.003	0.003	0.003	0.003	0.003	0.006	0.004	0.003	0.009	0.003
424.00	-0.000	0.004	0.003	0.003	0.003	0.002	0.003	0.003	0.003	0.003	0.006	0.004	0.002	0.009	0.002
425.00	-0.000	0.004	0.003	0.003	0.003	0.002	0.003	0.003	0.003	0.003	0.006	0.004	0.002	0.009	0.003
426.00	-0.000	0.004	0.003	0.003	0.003	0.002	0.003	0.002	0.003	0.003	0.005	0.004	0.002	0.008	0.002
427.00	-0.000	0.004	0.003	0.003	0.003	0.002	0.003	0.003	0.003	0.003	0.005	0.004	0.002	0.008	0.002
428.00	-0.000	0.004	0.003	0.003	0.003	0.002	0.003	0.002	0.003	0.003	0.005	0.004	0.002	0.008	0.002
429.00	-0.000	0.004	0.003	0.003	0.003	0.002	0.003	0.002	0.002	0.002	0.005	0.004	0.002	0.008	0.002
430.00	-0.000	0.004	0.003	0.003	0.003	0.002	0.003	0.002	0.002	0.002	0.005	0.004	0.002	0.008	0.002
431.00	-0.000	0.004	0.003	0.003	0.003	0.002	0.003	0.002	0.002	0.002	0.005	0.004	0.002	0.008	0.002
432.00	-0.000	0.004	0.003	0.003	0.003	0.002	0.003	0.002	0.002	0.002	0.005	0.004	0.002	0.008	0.002
433.00	-0.000	0.004	0.003	0.003	0.003	0.002	0.003	0.002	0.002	0.002	0.005	0.004	0.002	0.008	0.002
434.00	-0.000	0.004	0.003	0.003	0.003	0.002	0.002	0.002	0.002	0.002	0.005	0.004	0.002	0.008	0.002
435.00	-0.000	0.004	0.003	0.003	0.003	0.002	0.002	0.002	0.002	0.002	0.005	0.004	0.002	0.008	0.002
436.00	-0.000	0.003	0.003	0.003	0.003	0.002	0.002	0.002	0.002	0.002	0.005	0.004	0.002	0.008	0.002
437.00	-0.000	0.003	0.003	0.003	0.003	0.002	0.002	0.002	0.002	0.002	0.005	0.004	0.002	0.008	0.002
438.00	-0.000	0.003	0.003	0.003	0.003	0.002	0.002	0.002	0.002	0.002	0.005	0.004	0.002	0.008	0.002
439.00	-0.000	0.003	0.003	0.003	0.003	0.002	0.002	0.002	0.002	0.002	0.005	0.004	0.002	0.008	0.002
440.00	-0.000	0.003	0.003	0.003	0.003	0.002	0.002	0.002	0.002	0.002	0.004	0.003	0.002	0.008	0.002
441.00	-0.001	0.003	0.002	0.003	0.002	0.002	0.002	0.002	0.002	0.002	0.004	0.003	0.002	0.008	0.002
442.00	-0.000	0.003	0.003	0.003	0.002	0.002	0.002	0.002	0.002	0.002	0.004	0.003	0.002	0.008	0.002
443.00	-0.000	0.003	0.003	0.003	0.002	0.002	0.002	0.002	0.002	0.002	0.004	0.003	0.002	0.008	0.002
444.00	-0.000	0.003	0.003	0.003	0.003	0.002	0.002	0.002	0.002	0.002	0.004	0.003	0.002	0.008	0.002
445.00	-0.000	0.003	0.003	0.003	0.002	0.002	0.002	0.002	0.002	0.002	0.004	0.003	0.002	0.007	0.002
446.00	-0.000	0.003	0.002	0.003	0.002	0.002	0.002	0.002	0.002	0.002	0.004	0.003	0.002	0.007	0.002
447.00	-0.000	0.003	0.002	0.002	0.002	0.002	0.002	0.002	0.002	0.002	0.004	0.003	0.002	0.007	0.001
448.00	-0.000	0.003	0.002	0.002	0.002	0.002	0.002	0.001	0.002	0.002	0.004	0.003	0.002	0.007	0.001
449.00	-0.000	0.003	0.002	0.002	0.002	0.002	0.002	0.002	0.002	0.002	0.004	0.003	0.002	0.007	0.002
450.00	-0.000	0.003	0.002	0.002	0.002	0.002	0.002	0.002	0.002	0.002	0.004	0.003	0.002	0.007	0.002
451.00	-0.000	0.003	0.002	0.002	0.002	0.002	0.002	0.002	0.002	0.002	0.004	0.003	0.002	0.007	0.002
452.00	-0.000	0.003	0.002	0.002	0.002	0.002	0.002	0.002	0.002	0.002	0.004	0.003	0.002	0.007	0.001
453.00	-0.000	0.003	0.002	0.002	0.002	0.002	0.002	0.001	0.002	0.002	0.004	0.003	0.002	0.007	0.001
454.00	-0.000	0.003	0.002	0.002	0.002	0.002	0.002	0.001	0.002	0.002	0.004	0.003	0.002	0.007	0.001
455.00	-0.000	0.003	0.002	0.002	0.002	0.002	0.002	0.002	0.002	0.002	0.004	0.003	0.002	0.007	0.001
456.00	-0.000	0.003	0.002	0.002	0.002	0.002	0.002	0.001	0.002	0.002	0.004	0.003	0.002	0.007	0.001
457.00	-0.000	0.003	0.002	0.002	0.002	0.002	0.002	0.001	0.002	0.002	0.004	0.003	0.002	0.007	0.001
458.00	-0.000	0.003	0.002	0.002	0.002	0.002	0.002	0.001	0.002	0.002	0.004	0.003	0.002	0.007	0.001
459.00	-0.000	0.003	0.002	0.002	0.002	0.002	0.002	0.001	0.002	0.002	0.004	0.003	0.001	0.007	0.001
460.00	-0.000	0.003	0.002	0.002	0.002	0.002	0.002	0.001	0.001	0.002	0.003	0.003	0.001	0.007	0.001
461.00	-0.000	0.003	0.002	0.002	0.002	0.001	0.002	0.001	0.001	0.002	0.003	0.003	0.001	0.007	0.001
462.00	-0.000	0.003	0.002	0.002	0.002	0.002	0.002	0.001	0.002	0.002	0.004	0.003	0.001	0.007	0.001
463.00	-0.000	0.003	0.002	0.002	0.002	0.002	0.002	0.001	0.002	0.002	0.003	0.003	0.001	0.007	0.001
464.00	-0.000	0.003	0.002	0.002	0.002	0.002	0.002	0.001	0.001	0.002	0.004	0.003	0.002	0.007	0.001
465.00	-0.000	0.003	0.002	0.002	0.002	0.002	0.002	0.001	0.001	0.002	0.003	0.003	0.001	0.007	0.001
466.00	-0.000	0.002	0.002	0.002	0.002	0.001	0.002	0.001	0.001	0.002	0.003	0.003	0.001	0.007	0.001
467.00	-0.000	0.003	0.002	0.002	0.002	0.002	0.002	0.001	0.001	0.002	0.003	0.003	0.001	0.007	0.001
468.00	-0.000	0.002	0.002	0.002	0.002	0.001	0.002	0.001	0.001	0.002	0.003	0.003	0.001	0.007	0.001
469.00	-0.000	0.002	0.002	0.002	0.002	0.001	0.002	0.001	0.001	0.002	0.003	0.003	0.001	0.007	0.001
470.00	-0.000	0.002	0.002	0.002	0.002	0.002	0.002	0.001	0.001	0.002	0.003	0.003	0.001	0.007	0.001
471.00	-0.000	0.002	0.002	0.002	0.002	0.001	0.002	0.001	0.001	0.002	0.003	0.003	0.001	0.007	0.001
472.00	-0.000	0.002	0.002	0.002	0.002	0.001	0.002	0.001	0.001	0.002	0.003	0.003	0.001	0.007	0.001
473.00	-0.000	0.002	0.002	0.002	0.002	0.001	0.002	0.001	0.001	0.002	0.003	0.003	0.001	0.007	0.001
474.00	-0.000	0.002	0.002	0.002	0.002	0.001	0.001	0.001	0.001	0.001	0.003	0.003	0.001	0.007	0.001
475.00	-0.000	0.002	0.002	0.002	0.002	0.001	0.001	0.001	0.001	0.001	0.003	0.003	0.001	0.007	0.001
476.00	-0.000	0.002	0.002	0.002	0.002	0.001	0.001	0.001	0.001	0.001	0.003	0.002	0.001	0.007	0.001
477.00	-0.000	0.002	0.002	0.002	0.002	0.001	0.001	0.001	0.001	0.001	0.003	0.002	0.001	0.007	0.001
478.00	-0.000	0.002	0.002	0.002	0.002	0.001	0.001	0.001	0.001	0.001	0.003	0.002	0.001	0.007	0.001
479.00	-0.000	0.002	0.002	0.002	0.002	0.001	0.001	0.001	0.001	0.001	0.003	0.002	0.001	0.007	0.001
480.00	-0.000	0.002	0.002	0.002	0.002	0.001	0.001	0.001	0.001	0.001	0.003	0.002	0.001	0.006	0.001
481.00	-0.000	0.002	0.002	0.002	0.002	0.001	0.001	0.001	0.001	0.001	0.003	0.002	0.001	0.006	0.001
482.00	-0.000	0.002	0.002	0.002	0.002	0.001	0.001	0.001	0.001	0.001	0.003	0.002	0.001	0.006	0.001
483.00	-0.000	0.002	0.002	0.002	0.002	0.001	0.001	0.001	0.001	0.001	0.003	0.002	0.001	0.006	0.001
484.00	-0.000	0.002	0.002	0.002	0.002	0.001	0.001	0.001	0.001	0.001	0.003	0.002	0.001	0.006	0.001
485.00	-0.000	0.002	0.002	0.002	0.002	0.001	0.001	0.001	0.001	0.001	0.003	0.002	0.001	0.006	0.001
486.00	-0.000	0.002	0.002	0.002	0.002	0.001	0.001	0.001	0.001	0.001	0.003	0.002	0.001	0.006	0.001
487.00	-0.000	0.002	0.002	0.002	0.002	0.001	0.001	0.001	0.001	0.001	0.003	0.002	0.001	0.006	0.001
488.00	-0.000	0.002	0.002	0.002	0.002	0.001	0.001	0.001	0.001	0.001	0.003	0.002	0.001	0.006	0.001
489.00	-0.001	0.002	0.002	0.002	0.002	0.001	0.001	0.001	0.001	0.001	0.002	0.002	0.001	0.006	0.001
490.00	-0.000	0.002	0.002	0.002	0.002	0.001	0.001	0.001	0.001	0.001	0.002	0.002	0.001	0.006	0.001
491.00	-0.000	0.002	0.002	0.002	0.001	0.001	0.001	0.001	0.001	0.001	0.002	0.002	0.001	0.006	0.001
492.00	-0.000	0.002	0.002	0.002	0.002	0.001	0.001	0.001	0.001	0.001	0.003	0.002	0.001	0.006	0.001
493.00	-0.000	0.002	0.002	0.002	0.002	0.001	0.001	0.001	0.001	0.001	0.003	0.002	0.001	0.006	0.001
494.00	-0.000	0.002	0.002	0.002	0.002	0.001	0.001	0.001	0.001	0.001	0.003	0.002	0.001	0.006	0.001
495.00	-0.000	0.002	0.002	0.002	0.002	0.001	0.001	0.001	0.001	0.001	0.003	0.002	0.001	0.006	0.001
496.00	-0.000	0.002	0.002	0.002	0.002	0.001	0.001	0.001	0.001	0.001	0.003	0.002	0.001	0.006	0.001
497.00	-0.000	0.002	0.002	0.002	0.002	0.001	0.001	0.001	0.001	0.001	0.003	0.002	0.001	0.006	0.001
498.00	-0.000	0.002	0.002	0.002	0.002	0.001	0.001	0.001	0.001	0.001	0.003	0.002	0.001	0.006	0.001
499.00	-0.000	0.002	0.002	0.002	0.002	0.001	0.001	0.001	0.001	0.001	0.003	0.002	0.001	0.006	0.001
500.00	-0.000	0.002	0.002	0.002	0.002	0.001	0.001	0.001	0.001	0.001	0.002	0.002	0.001	0.006	0.001
501.00	-0.000	0.002	0.002	0.002	0.002	0.001	0.001	0.001	0.001	0.001	0.003	0.002	0.001	0.006	0.001
502.00	-0.000	0.002	0.002	0.001	0.002	0.001	0.001	0.001	0.001	0.001	0.002	0.002	0.001	0.006	0.001
503.00	-0.000	0.002	0.002	0.001	0.002	0.001	0.001	0.001	0.001	0.001	0.002	0.002	0.001	0.006	0.001
504.00	-0.000	0.002	0.002	0.001	0.002	0.001	0.001	0.001	0.001	0.001	0.002	0.002	0.001	0.006	0.001
505.00	-0.000	0.002	0.002	0.001	0.002	0.001	0.001	0.001	0.001	0.001	0.002	0.002	0.001	0.006	0.001
506.00	-0.000	0.002	0.002	0.001	0.002	0.001	0.001	0.001	0.001	0.001	0.002	0.002	0.001	0.006	0.001
507.00	-0.000	0.002	0.002	0.001	0.002	0.001	0.001	0.001	0.001	0.001	0.002	0.002	0.001	0.006	0.001
508.00	-0.000	0.002	0.002	0.001	0.002	0.001	0.001	0.001	0.001	0.001	0.002	0.002	0.001	0.006	0.001
509.00	-0.000	0.002	0.002	0.001	0.002	0.001	0.001	0.001	0.001	0.001	0.002	0.002	0.001	0.006	0.001
510.00	-0.000	0.002	0.002	0.001	0.002	0.001	0.001	0.001	0.001	0.001	0.002	0.002	0.001	0.006	0.001
511.00	-0.000	0.002	0.002	0.001	0.002	0.001	0.001	0.001	0.001	0.001	0.002	0.002	0.001	0.006	0.001
512.00	-0.000	0.002	0.002	0.001	0.002	0.001	0.001	0.001	0.001	0.001	0.002	0.002	0.001	0.006	0.001
513.00	-0.000	0.002	0.002	0.001	0.002	0.001	0.001	0.001	0.001	0.001	0.002	0.002	0.001	0.006	0.001
514.00	-0.000	0.002	0.002	0.001	0.002	0.001	0.001	0.001	0.001	0.001	0.002	0.002	0.001	0.006	0.001
515.00	-0.000	0.002	0.002	0.001	0.002	0.001	0.001	0.001	0.001	0.001	0.002	0.002	0.001	0.006	0.001
516.00	-0.000	0.002	0.002	0.001	0.002	0.001	0.001	0.001	0.001	0.001	0.002	0.002	0.001	0.006	0.001
517.00	-0.000	0.002	0.002	0.001	0.002	0.001	0.001	0.001	0.001	0.001	0.002	0.002	0.001	0.006	0.001
518.00	-0.000	0.002	0.002	0.001	0.001	0.001	0.001	0.001	0.001	0.001	0.002	0.002	0.001	0.006	0.001
519.00	-0.000	0.002	0.002	0.001	0.001	0.001	0.001	0.001	0.001	0.001	0.002	0.002	0.001	0.006	0.001
520.00	-0.000	0.002	0.002	0.001	0.002	0.001	0.001	0.001	0.001	0.001	0.002	0.002	0.001	0.006	0.001
521.00	-0.000	0.002	0.002	0.001	0.002	0.001	0.001	0.001	0.001	0.001	0.002	0.002	0.001	0.006	0.001
522.00	-0.000	0.002	0.002	0.001	0.001	0.001	0.001	0.001	0.001	0.001	0.002	0.002	0.001	0.006	0.001
523.00	-0.000	0.002	0.001	0.001	0.001	0.001	0.001	0.001	0.001	0.001	0.002	0.002	0.001	0.006	0.001
524.00	-0.000	0.001	0.001	0.001	0.001	0.001	0.001	0.001	0.001	0.001	0.002	0.002	0.001	0.006	0.001
525.00	-0.000	0.002	0.001	0.001	0.001	0.001	0.001	0.001	0.001	0.001	0.002	0.002	0.001	0.006	0.001
526.00	-0.000	0.002	0.002	0.001	0.001	0.001	0.001	0.001	0.001	0.001	0.002	0.002	0.001	0.006	0.001
527.00	-0.000	0.002	0.002	0.001	0.001	0.001	0.001	0.001	0.001	0.001	0.002	0.002	0.001	0.006	0.001
528.00	-0.000	0.002	0.002	0.001	0.001	0.001	0.001	0.001	0.001	0.001	0.002	0.002	0.001	0.006	0.001
529.00	-0.000	0.001	0.002	0.001	0.001	0.001	0.001	0.000	0.001	0.001	0.002	0.002	0.001	0.005	0.001
530.00	-0.000	0.001	0.001	0.001	0.001	0.001	0.001	0.000	0.001	0.001	0.002	0.002	0.001	0.005	0.001
531.00	-0.000	0.001	0.001	0.001	0.001	0.001	0.001	0.000	0.001	0.001	0.002	0.002	0.001	0.005	0.000
532.00	-0.000	0.001	0.001	0.001	0.001	0.001	0.001	0.000	0.001	0.001	0.002	0.002	0.001	0.005	0.000
533.00	-0.000	0.001	0.001	0.001	0.001	0.001	0.001	0.000	0.001	0.001	0.002	0.002	0.001	0.005	0.001
534.00	-0.000	0.001	0.001	0.001	0.001	0.001	0.001	0.000	0.001	0.001	0.002	0.002	0.001	0.005	0.001
535.00	0.000	0.002	0.002	0.001	0.002	0.001	0.001	0.001	0.001	0.001	0.002	0.002	0.001	0.006	0.001
536.00	0.001	0.003	0.003	0.002	0.002	0.002	0.002	0.001	0.002	0.002	0.003	0.003	0.002	0.006	0.002
537.00	0.000	0.002	0.002	0.002	0.001	0.001	0.001	0.001	0.001	0.001	0.002	0.002	0.001	0.006	0.001
538.00	-0.000	0.002	0.002	0.001	0.001	0.001	0.001	0.000	0.001	0.001	0.002	0.002	0.001	0.005	0.001
539.00	-0.000	0.001	0.001	0.001	0.001	0.001	0.001	0.000	0.001	0.001	0.002	0.002	0.001	0.005	0.000
540.00	-0.000	0.001	0.001	0.001	0.001	0.001	0.001	0.000	0.000	0.001	0.002	0.002	0.001	0.005	0.000
541.00	-0.000	0.001	0.001	0.001	0.001	0.001	0.001	0.000	0.001	0.001	0.002	0.002	0.001	0.005	0.000
542.00	-0.000	0.002	0.002	0.001	0.001	0.001	0.001	0.000	0.001	0.001	0.002	0.002	0.001	0.005	0.000
543.00	-0.000	0.002	0.001	0.001	0.001	0.001	0.001	0.000	0.000	0.001	0.002	0.002	0.001	0.005	0.000
544.00	-0.000	0.001	0.001	0.001	0.001	0.001	0.001	0.000	0.000	0.001	0.002	0.002	0.001	0.005	0.000
545.00	-0.000	0.001	0.001	0.001	0.001	0.001	0.001	0.000	0.000	0.001	0.002	0.002	0.001	0.005	0.000
546.00	-0.000	0.001	0.001	0.001	0.001	0.001	0.001	0.000	0.000	0.001	0.002	0.002	0.001	0.005	0.000
547.00	-0.000	0.001	0.001	0.001	0.001	0.001	0.001	0.000	0.000	0.001	0.002	0.002	0.001	0.005	0.000
548.00	-0.000	0.001	0.001	0.001	0.001	0.001	0.001	0.000	0.000	0.001	0.002	0.002	0.001	0.005	0.000
549.00	-0.000	0.001	0.001	0.001	0.001	0.001	0.001	0.000	0.000	0.001	0.002	0.002	0.001	0.005	0.000
550.00	-0.000	0.001	0.001	0.001	0.001	0.001	0.001	0.000	0.000	0.001	0.002	0.002	0.001	0.005	0.000
551.00	-0.000	0.001	0.001	0.001	0.001	0.001	0.001	0.000	0.000	0.001	0.002	0.002	0.001	0.005	0.000
552.00	-0.000	0.001	0.001	0.001	0.001	0.001	0.001	0.000	0.001	0.001	0.002	0.002	0.001	0.005	0.000
553.00	-0.000	0.001	0.001	0.001	0.001	0.001	0.001	0.000	0.000	0.001	0.002	0.002	0.001	0.005	0.000
554.00	-0.000	0.001	0.001	0.001	0.001	0.001	0.001	0.000	0.000	0.001	0.002	0.002	0.001	0.005	0.000
555.00	-0.000	0.001	0.001	0.001	0.001	0.001	0.001	0.000	0.001	0.001	0.002	0.002	0.001	0.005	0.000
556.00	-0.000	0.001	0.001	0.001	0.001	0.001	0.001	0.000	0.000	0.001	0.002	0.002	0.001	0.005	0.000
557.00	-0.000	0.001	0.001	0.001	0.001	0.001	0.001	0.000	0.000	0.001	0.002	0.002	0.001	0.005	0.000
558.00	-0.000	0.001	0.001	0.001	0.001	0.001	0.001	0.000	0.000	0.001	0.002	0.002	0.001	0.005	0.000
559.00	-0.000	0.001	0.001	0.001	0.001	0.001	0.001	0.000	0.000	0.001	0.002	0.002	0.001	0.005	0.000
560.00	-0.000	0.001	0.001	0.001	0.001	0.001	0.001	0.000	0.000	0.001	0.002	0.002	0.001	0.005	0.000
561.00	-0.000	0.001	0.001	0.001	0.001	0.001	0.001	0.000	0.000	0.001	0.002	0.002	0.001	0.005	0.000
562.00	-0.000	0.001	0.001	0.001	0.001	0.001	0.001	0.000	0.000	0.001	0.002	0.002	0.001	0.005	0.000
563.00	-0.000	0.001	0.001	0.001	0.001	0.001	0.001	0.000	0.000	0.001	0.002	0.002	0.001	0.005	0.000
564.00	-0.000	0.001	0.001	0.001	0.001	0.001	0.001	0.000	0.000	0.001	0.002	0.002	0.001	0.005	0.000
565.00	-0.000	0.001	0.001	0.001	0.001	0.001	0.001	0.000	0.000	0.001	0.002	0.002	0.001	0.005	0.000
566.00	-0.000	0.001	0.001	0.001	0.001	0.001	0.001	0.000	0.000	0.001	0.002	0.002	0.001	0.005	0.000
567.00	-0.000	0.001	0.001	0.001	0.001	0.001	0.001	0.000	0.000	0.001	0.002	0.002	0.001	0.005	0.000
568.00	-0.000	0.001	0.001	0.001	0.001	0.001	0.001	0.000	0.000	0.001	0.002	0.002	0.001	0.005	0.000
569.00	-0.000	0.001	0.001	0.001	0.001	0.001	0.001	0.000	0.000	0.001	0.002	0.002	0.001	0.005	0.000
570.00	-0.000	0.001	0.001	0.001	0.001	0.001	0.001	0.000	0.001	0.001	0.002	0.002	0.001	0.005	0.000
571.00	-0.000	0.001	0.001	0.001	0.001	0.001	0.001	0.000	0.001	0.001	0.002	0.002	0.001	0.005	0.000
572.00	-0.000	0.001	0.001	0.001	0.001	0.001	0.001	0.000	0.001	0.001	0.002	0.002	0.001	0.005	0.000
573.00	-0.000	0.001	0.001	0.001	0.001	0.001	0.001	0.000	0.001	0.001	0.002	0.002	0.001	0.005	0.000
574.00	-0.000	0.001	0.001	0.001	0.001	0.001	0.001	0.000	0.000	0.001	0.002	0.002	0.001	0.005	0.000
575.00	-0.000	0.001	0.001	0.001	0.001	0.001	0.001	0.000	0.000	0.001	0.002	0.002	0.001	0.005	0.000
576.00	-0.000	0.001	0.001	0.001	0.001	0.001	0.001	0.000	0.000	0.001	0.002	0.002	0.001	0.005	0.000
577.00	0.000	0.001	0.001	0.001	0.001	0.001	0.001	0.000	0.001	0.001	0.002	0.002	0.001	0.005	0.000
578.00	-0.000	0.001	0.001	0.001	0.001	0.001	0.001	0.000	0.001	0.001	0.002	0.002	0.001	0.005	0.000
579.00	0.000	0.001	0.001	0.001	0.001	0.001	0.001	0.000	0.001	0.001	0.002	0.002	0.001	0.005	0.000
580.00	-0.000	0.001	0.001	0.001	0.001	0.001	0.001	0.000	0.001	0.001	0.002	0.002	0.001	0.005	0.000
581.00	0.000	0.001	0.001	0.001	0.001	0.001	0.001	0.000	0.001	0.001	0.002	0.002	0.001	0.005	0.000
582.00	0.000	0.001	0.001	0.001	0.001	0.001	0.001	0.000	0.001	0.001	0.002	0.002	0.001	0.005	0.000
583.00	0.000	0.001	0.001	0.001	0.001	0.001	0.001	0.000	0.001	0.001	0.002	0.002	0.001	0.005	0.000
584.00	-0.000	0.001	0.001	0.001	0.001	0.001	0.001	0.000	0.001	0.001	0.002	0.002	0.001	0.005	0.000
585.00	-0.000	0.001	0.001	0.001	0.001	0.001	0.001	0.000	0.000	0.001	0.002	0.002	0.001	0.005	0.000
586.00	0.000	0.001	0.001	0.001	0.001	0.001	0.001	0.000	0.001	0.001	0.002	0.002	0.001	0.005	0.000
587.00	0.000	0.001	0.001	0.001	0.001	0.001	0.001	0.000	0.000	0.001	0.002	0.002	0.001	0.005	0.000
588.00	0.000	0.001	0.001	0.001	0.001	0.001	0.001	0.000	0.001	0.001	0.002	0.002	0.001	0.005	0.000
589.00	-0.000	0.001	0.001	0.001	0.001	0.001	0.001	0.000	0.000	0.001	0.002	0.002	0.001	0.005	0.000
590.00	-0.000	0.001	0.001	0.001	0.001	0.001	0.001	0.000	0.000	0.001	0.002	0.002	0.001	0.005	0.000
591.00	-0.000	0.001	0.001	0.001	0.001	0.001	0.001	0.000	0.000	0.001	0.002	0.002	0.001	0.005	0.000
592.00	-0.000	0.001	0.001	0.001	0.001	0.001	0.001	0.000	0.000	0.001	0.002	0.002	0.001	0.005	0.000
593.00	-0.000	0.001	0.001	0.001	0.001	0.001	0.001	0.000	0.000	0.001	0.002	0.002	0.001	0.005	0.000
594.00	-0.000	0.001	0.001	0.001	0.001	0.001	0.001	0.000	0.000	0.001	0.002	0.002	0.001	0.005	0.000
595.00	-0.000	0.001	0.001	0.001	0.001	0.001	0.001	0.000	0.000	0.001	0.002	0.002	0.001	0.005	0.000
596.00	0.000	0.001	0.001	0.001	0.001	0.001	0.001	0.000	0.000	0.001	0.002	0.002	0.001	0.005	0.000
597.00	-0.000	0.001	0.001	0.001	0.001	0.001	0.001	0.000	0.000	0.001	0.002	0.002	0.001	0.005	0.000
598.00	-0.000	0.001	0.001	0.001	0.001	0.001	0.000	0.000	0.000	0.001	0.001	0.001	0.001	0.004	0.000
599.00	-0.000	0.001	0.001	0.001	0.001	0.001	0.000	0.000	0.000	0.001	0.001	0.001	0.001	0.004	0.000
600.00	-0.000	0.001	0.001	0.001	0.001	0.001	0.001	0.000	0.000	0.001	0.001	0.002	0.001	0.004	0.000
601.00	-0.000	0.001	0.001	0.001	0.001	0.001	0.001	0.000	0.000	0.001	0.001	0.002	0.001	0.004	0.000
602.00	-0.000	0.001	0.001	0.001	0.001	0.001	0.001	0.000	0.000	0.001	0.002	0.002	0.001	0.005	0.000
603.00	-0.000	0.001	0.001	0.001	0.001	0.001	0.001	0.000	0.000	0.001	0.002	0.002	0.001	0.005	0.000
604.00	-0.000	0.001	0.001	0.001	0.001	0.001	0.001	0.000	0.000	0.001	0.001	0.002	0.001	0.004	0.000
605.00	-0.000	0.001	0.001	0.001	0.001	0.001	0.001	0.000	0.000	0.001	0.001	0.001	0.001	0.004	0.000
606.00	-0.000	0.001	0.001	0.001	0.001	0.001	0.001	0.000	0.000	0.001	0.001	0.002	0.001	0.004	0.000
607.00	-0.000	0.001	0.001	0.001	0.001	0.001	0.001	0.000	0.000	0.001	0.001	0.001	0.001	0.004	0.000
608.00	-0.000	0.001	0.001	0.001	0.001	0.001	0.001	0.000	0.000	0.001	0.001	0.001	0.001	0.004	0.000
609.00	-0.000	0.001	0.001	0.001	0.001	0.001	0.001	0.000	0.000	0.001	0.001	0.001	0.001	0.004	0.000
610.00	-0.000	0.001	0.001	0.001	0.001	0.001	0.001	0.000	0.000	0.001	0.001	0.001	0.001	0.004	0.000
611.00	-0.000	0.001	0.001	0.001	0.001	0.001	0.001	0.000	0.000	0.001	0.001	0.001	0.001	0.004	0.000
612.00	-0.000	0.001	0.001	0.001	0.001	0.001	0.001	0.000	0.000	0.001	0.001	0.001	0.001	0.004	0.000
613.00	-0.000	0.001	0.001	0.001	0.001	0.001	0.001	0.000	0.000	0.001	0.001	0.001	0.001	0.004	0.000
614.00	-0.000	0.001	0.001	0.001	0.001	0.001	0.001	0.000	0.000	0.001	0.001	0.001	0.001	0.004	0.000
615.00	-0.000	0.001	0.001	0.001	0.001	0.001	0.000	0.000	0.000	0.001	0.001	0.001	0.001	0.004	0.000
616.00	-0.000	0.001	0.001	0.001	0.001	0.001	0.000	0.000	0.000	0.001	0.001	0.001	0.001	0.004	0.000
617.00	-0.000	0.001	0.001	0.001	0.001	0.001	0.000	0.000	0.000	0.001	0.001	0.001	0.001	0.004	0.000
618.00	-0.000	0.001	0.001	0.001	0.001	0.001	0.000	0.000	0.000	0.001	0.001	0.001	0.001	0.004	0.000
619.00	-0.000	0.001	0.001	0.001	0.001	0.001	0.000	0.000	0.000	0.000	0.001	0.001	0.001	0.004	0.000
620.00	-0.000	0.001	0.001	0.001	0.001	0.001	0.000	0.000	0.000	0.001	0.001	0.001	0.001	0.004	0.000
621.00	-0.000	0.001	0.001	0.001	0.001	0.001	0.000	0.000	0.000	0.001	0.001	0.001	0.001	0.004	0.000
622.00	-0.000	0.001	0.001	0.001	0.001	0.001	0.000	0.000	0.000	0.001	0.001	0.001	0.001	0.004	0.000
623.00	-0.000	0.001	0.001	0.001	0.001	0.001	0.000	0.000	0.000	0.001	0.001	0.001	0.001	0.004	0.000
624.00	-0.000	0.001	0.001	0.001	0.001	0.001	0.000	0.000	0.000	0.001	0.001	0.001	0.001	0.004	0.000
625.00	-0.000	0.001	0.001	0.001	0.001	0.001	0.000	0.000	0.000	0.001	0.001	0.001	0.001	0.004	0.000
626.00	-0.000	0.001	0.001	0.001	0.001	0.001	0.000	0.000	0.000	0.001	0.001	0.001	0.001	0.004	0.000
627.00	-0.000	0.001	0.001	0.001	0.001	0.001	0.000	0.000	0.000	0.001	0.001	0.001	0.001	0.004	0.000
628.00	-0.000	0.001	0.001	0.001	0.001	0.001	0.000	0.000	0.000	0.000	0.001	0.001	0.001	0.004	0.000
629.00	-0.000	0.001	0.001	0.001	0.001	0.001	0.000	0.000	0.000	0.000	0.001	0.001	0.001	0.004	0.000
630.00	-0.000	0.001	0.001	0.001	0.001	0.001	0.000	0.000	0.000	0.000	0.001	0.001	0.001	0.004	0.000
631.00	-0.000	0.001	0.001	0.001	0.001	0.001	0.000	0.000	0.000	0.001	0.001	0.001	0.001	0.004	0.000
632.00	-0.000	0.001	0.001	0.001	0.001	0.001	0.000	0.000	0.000	0.001	0.001	0.001	0.001	0.004	0.000
633.00	-0.000	0.001	0.001	0.001	0.001	0.001	0.000	0.000	0.000	0.000	0.001	0.001	0.001	0.004	0.000
634.00	-0.000	0.001	0.001	0.001	0.001	0.001	0.000	0.000	0.000	0.001	0.001	0.001	0.001	0.004	0.000
635.00	-0.000	0.001	0.001	0.001	0.001	0.001	0.000	0.000	0.000	0.001	0.001	0.001	0.000	0.004	0.000
636.00	-0.000	0.001	0.001	0.001	0.001	0.001	0.000	0.000	0.000	0.001	0.001	0.001	0.000	0.004	0.000
637.00	-0.000	0.001	0.001	0.001	0.001	0.001	0.000	0.000	0.000	0.000	0.001	0.001	0.000	0.004	0.000
638.00	-0.000	0.001	0.001	0.001	0.001	0.001	0.000	0.000	0.000	0.000	0.001	0.001	0.000	0.004	0.000
639.00	-0.000	0.001	0.001	0.001	0.001	0.001	0.000	0.000	0.000	0.000	0.001	0.001	0.000	0.004	0.000
640.00	-0.000	0.001	0.001	0.001	0.001	0.001	0.000	0.000	0.000	0.000	0.001	0.001	0.000	0.004	0.000
641.00	-0.000	0.001	0.001	0.001	0.001	0.001	0.000	-0.000	0.000	0.000	0.001	0.001	0.000	0.004	0.000
642.00	-0.000	0.001	0.001	0.001	0.001	0.001	0.000	0.000	0.000	0.000	0.001	0.001	0.000	0.004	0.000
643.00	-0.000	0.001	0.001	0.001	0.001	0.001	0.000	0.000	0.000	0.000	0.001	0.001	0.000	0.004	0.000
644.00	-0.000	0.001	0.001	0.001	0.001	0.001	0.000	0.000	0.000	0.000	0.001	0.001	0.000	0.004	0.000
645.00	-0.000	0.001	0.001	0.001	0.001	0.001	0.000	0.000	0.000	0.001	0.001	0.001	0.000	0.004	0.000
646.00	-0.000	0.001	0.001	0.001	0.001	0.001	0.000	0.000	0.000	0.001	0.001	0.001	0.000	0.004	0.000
647.00	-0.000	0.001	0.001	0.001	0.001	0.001	0.000	0.000	0.000	0.001	0.001	0.001	0.000	0.004	0.000
648.00	-0.000	0.001	0.001	0.001	0.001	0.001	0.001	0.000	0.000	0.001	0.001	0.001	0.001	0.004	0.000
649.00	0.000	0.001	0.001	0.001	0.001	0.001	0.001	0.000	0.000	0.001	0.001	0.001	0.001	0.004	0.000
650.00	-0.000	0.001	0.001	0.001	0.001	0.001	0.001	0.000	0.000	0.001	0.001	0.001	0.001	0.004	0.000
651.00	-0.000	0.001	0.001	0.001	0.001	0.001	0.001	0.000	0.000	0.001	0.001	0.001	0.001	0.004	0.000
652.00	-0.000	0.001	0.001	0.001	0.001	0.001	0.001	0.000	0.000	0.001	0.001	0.001	0.001	0.004	0.000
653.00	-0.000	0.001	0.001	0.001	0.001	0.001	0.001	0.000	0.000	0.001	0.001	0.001	0.001	0.004	0.000
654.00	0.000	0.001	0.001	0.001	0.001	0.001	0.001	0.000	0.000	0.001	0.001	0.001	0.001	0.004	0.000
655.00	0.000	0.001	0.001	0.001	0.001	0.001	0.001	0.000	0.000	0.001	0.001	0.001	0.001	0.004	0.000
656.00	0.000	0.001	0.001	0.001	0.001	0.001	0.001	0.000	0.000	0.001	0.001	0.001	0.001	0.004	0.000
657.00	0.000	0.001	0.001	0.001	0.001	0.001	0.001	0.000	0.000	0.001	0.001	0.001	0.001	0.004	0.000
658.00	0.000	0.001	0.001	0.001	0.001	0.001	0.001	0.000	0.000	0.001	0.001	0.001	0.001	0.004	0.000
659.00	0.000	0.001	0.001	0.001	0.001	0.001	0.001	0.000	0.000	0.001	0.001	0.001	0.001	0.004	0.000
660.00	0.000	0.001	0.001	0.001	0.001	0.001	0.001	0.000	0.000	0.001	0.001	0.001	0.001	0.004	0.000
661.00	0.000	0.001	0.001	0.001	0.001	0.001	0.001	0.000	0.000	0.001	0.001	0.001	0.001	0.004	0.000
662.00	-0.000	0.001	0.001	0.001	0.001	0.001	0.001	0.000	0.000	0.001	0.001	0.001	0.000	0.004	0.000
663.00	0.000	0.001	0.001	0.001	0.001	0.001	0.001	0.000	0.000	0.001	0.001	0.001	0.001	0.004	0.000
664.00	0.000	0.001	0.001	0.001	0.001	0.001	0.001	0.000	0.000	0.001	0.001	0.001	0.001	0.004	0.000
665.00	0.000	0.001	0.001	0.001	0.001	0.001	0.001	0.000	0.000	0.001	0.001	0.001	0.001	0.004	0.000
666.00	-0.000	0.001	0.001	0.001	0.001	0.001	0.001	0.000	0.000	0.001	0.001	0.001	0.001	0.004	0.000
667.00	0.000	0.001	0.001	0.001	0.001	0.001	0.001	0.000	0.000	0.001	0.001	0.001	0.001	0.004	0.000
668.00	0.000	0.001	0.001	0.001	0.001	0.001	0.001	0.000	0.000	0.001	0.001	0.001	0.001	0.004	0.000
669.00	0.000	0.001	0.001	0.001	0.001	0.001	0.001	0.000	0.000	0.001	0.001	0.001	0.001	0.004	0.000
670.00	0.000	0.001	0.001	0.001	0.001	0.001	0.001	0.000	0.000	0.001	0.001	0.001	0.001	0.004	0.000
671.00	0.000	0.001	0.001	0.001	0.001	0.001	0.001	0.000	0.000	0.001	0.001	0.001	0.001	0.004	0.000
672.00	0.000	0.001	0.001	0.001	0.001	0.001	0.001	0.000	0.000	0.001	0.001	0.001	0.001	0.004	0.000
673.00	0.000	0.001	0.001	0.001	0.001	0.001	0.001	0.000	0.000	0.001	0.001	0.001	0.001	0.004	0.000
674.00	0.000	0.001	0.001	0.001	0.001	0.001	0.001	0.000	0.000	0.001	0.001	0.001	0.001	0.004	0.000
675.00	0.000	0.001	0.001	0.001	0.001	0.001	0.001	0.000	0.000	0.001	0.001	0.001	0.001	0.004	0.000
676.00	0.000	0.001	0.001	0.001	0.001	0.001	0.001	0.000	0.000	0.001	0.001	0.001	0.001	0.004	0.000
677.00	0.000	0.001	0.001	0.001	0.001	0.001	0.001	0.000	0.000	0.001	0.001	0.001	0.001	0.004	0.000
678.00	0.000	0.001	0.001	0.001	0.001	0.001	0.001	0.000	0.000	0.001	0.001	0.001	0.001	0.004	0.000
679.00	0.000	0.001	0.001	0.001	0.001	0.001	0.001	0.000	0.000	0.001	0.001	0.001	0.001	0.004	0.000
680.00	0.000	0.001	0.001	0.001	0.001	0.001	0.001	0.000	0.000	0.001	0.001	0.001	0.001	0.004	0.000
681.00	0.000	0.001	0.001	0.001	0.001	0.001	0.001	0.000	0.000	0.001	0.001	0.001	0.001	0.004	0.000
682.00	0.000	0.001	0.001	0.001	0.001	0.001	0.001	0.000	0.000	0.001	0.001	0.001	0.001	0.004	0.000
683.00	0.000	0.001	0.001	0.001	0.001	0.001	0.001	0.000	0.000	0.001	0.001	0.001	0.001	0.004	0.000
684.00	0.000	0.001	0.001	0.001	0.001	0.001	0.001	0.000	0.000	0.001	0.001	0.001	0.001	0.004	0.000
685.00	0.000	0.001	0.001	0.001	0.001	0.001	0.001	0.000	0.000	0.001	0.001	0.001	0.001	0.004	0.000
686.00	0.000	0.001	0.001	0.001	0.001	0.001	0.001	0.000	0.000	0.001	0.001	0.001	0.001	0.004	0.000
687.00	0.000	0.001	0.001	0.001	0.001	0.001	0.001	0.000	0.000	0.001	0.001	0.001	0.001	0.004	0.000
688.00	0.000	0.001	0.001	0.001	0.001	0.001	0.001	0.000	0.000	0.001	0.001	0.001	0.001	0.004	0.000
689.00	0.000	0.001	0.001	0.001	0.001	0.001	0.001	0.000	0.000	0.001	0.001	0.001	0.001	0.004	0.000
690.00	0.000	0.001	0.001	0.001	0.001	0.001	0.001	0.000	0.000	0.001	0.001	0.001	0.000	0.004	0.000
691.00	0.000	0.001	0.001	0.001	0.001	0.001	0.001	0.000	0.000	0.001	0.001	0.001	0.001	0.004	0.000
692.00	0.000	0.001	0.001	0.001	0.001	0.001	0.001	0.000	0.000	0.001	0.001	0.001	0.001	0.004	0.000
693.00	0.000	0.001	0.001	0.001	0.001	0.001	0.001	0.000	0.000	0.001	0.001	0.001	0.001	0.004	0.000
694.00	0.000	0.001	0.001	0.001	0.001	0.001	0.001	0.000	0.000	0.001	0.001	0.001	0.001	0.004	0.000
695.00	0.000	0.001	0.001	0.001	0.001	0.001	0.001	0.000	0.000	0.001	0.001	0.001	0.001	0.004	0.000
696.00	0.000	0.001	0.001	0.001	0.001	0.001	0.001	0.000	0.000	0.001	0.001	0.001	0.001	0.004	0.000
697.00	0.000	0.001	0.001	0.001	0.001	0.001	0.001	0.000	0.000	0.001	0.001	0.001	0.001	0.004	0.000
698.00	0.000	0.001	0.001	0.001	0.001	0.001	0.001	0.000	0.000	0.001	0.001	0.001	0.001	0.004	0.000
699.00	0.000	0.001	0.001	0.001	0.001	0.001	0.001	0.000	0.000	0.001	0.001	0.001	0.001	0.004	0.000
700.00	-0.000	0.001	0.001	0.001	0.001	0.001	0.001	0.000	0.000	0.001	0.001	0.001	0.001	0.004	0.000
701.00	0.000	0.001	0.001	0.001	0.001	0.001	0.001	0.000	0.000	0.001	0.001	0.001	0.001	0.004	0.000
702.00	0.000	0.001	0.001	0.001	0.001	0.001	0.001	0.000	0.000	0.001	0.001	0.001	0.001	0.004	0.000
703.00	0.000	0.001	0.001	0.001	0.001	0.001	0.001	0.000	0.000	0.001	0.001	0.001	0.001	0.004	0.000
704.00	0.000	0.001	0.001	0.001	0.001	0.001	0.001	0.000	0.000	0.001	0.001	0.001	0.001	0.003	0.000
705.00	0.000	0.001	0.001	0.001	0.001	0.001	0.000	0.000	0.000	0.001	0.001	0.001	0.001	0.004	0.000
706.00	0.000	0.001	0.001	0.001	0.001	0.001	0.000	0.000	0.000	0.001	0.001	0.001	0.001	0.004	0.000
707.00	-0.000	0.001	0.001	0.001	0.001	0.001	0.000	0.000	0.000	0.001	0.001	0.001	0.001	0.003	0.000
708.00	-0.000	0.001	0.001	0.001	0.001	0.001	0.000	0.000	0.000	0.001	0.001	0.001	0.001	0.003	0.000
709.00	-0.000	0.001	0.001	0.001	0.001	0.001	0.000	0.000	0.000	0.001	0.001	0.001	0.001	0.003	0.000
710.00	0.000	0.001	0.001	0.001	0.001	0.001	0.000	0.000	0.000	0.001	0.001	0.001	0.001	0.003	0.000
711.00	-0.000	0.001	0.001	0.001	0.001	0.001	0.000	0.000	0.000	0.001	0.001	0.001	0.001	0.003	0.000
712.00	-0.000	0.001	0.001	0.001	0.001	0.001	0.000	0.000	0.000	0.001	0.001	0.001	0.001	0.003	0.000
713.00	-0.000	0.001	0.001	0.001	0.001	0.001	0.000	0.000	0.000	0.001	0.001	0.001	0.001	0.003	0.000
714.00	0.000	0.001	0.001	0.001	0.001	0.001	0.001	0.000	0.000	0.001	0.001	0.001	0.001	0.003	0.000
715.00	-0.000	0.001	0.001	0.001	0.001	0.001	0.001	0.000	0.000	0.001	0.001	0.001	0.001	0.003	0.000
716.00	-0.000	0.001	0.001	0.001	0.001	0.001	0.000	0.000	0.000	0.001	0.001	0.001	0.001	0.003	0.000
717.00	-0.000	0.001	0.001	0.001	0.001	0.001	0.000	0.000	0.000	0.001	0.001	0.001	0.001	0.003	0.000
718.00	-0.000	0.001	0.001	0.001	0.001	0.001	0.000	0.000	0.000	0.001	0.001	0.001	0.001	0.003	0.000
719.00	-0.000	0.001	0.001	0.001	0.001	0.001	0.000	0.000	0.000	0.001	0.001	0.001	0.001	0.003	0.000
720.00	-0.000	0.001	0.001	0.001	0.001	0.001	0.000	0.000	0.000	0.001	0.001	0.001	0.001	0.003	0.000
721.00	0.000	0.001	0.001	0.001	0.001	0.001	0.001	0.000	0.000	0.001	0.001	0.001	0.001	0.003	0.000
722.00	-0.000	0.001	0.001	0.001	0.001	0.001	0.000	0.000	0.000	0.001	0.001	0.001	0.001	0.003	0.000
723.00	-0.000	0.001	0.001	0.001	0.001	0.001	0.000	0.000	0.000	0.001	0.001	0.001	0.001	0.003	0.000
724.00	-0.000	0.001	0.001	0.001	0.001	0.001	0.000	0.000	0.000	0.001	0.001	0.001	0.001	0.003	0.000
725.00	-0.000	0.001	0.001	0.001	0.001	0.001	0.000	0.000	0.000	0.000	0.001	0.001	0.001	0.003	0.000
726.00	-0.000	0.001	0.001	0.001	0.001	0.001	0.000	0.000	0.000	0.000	0.001	0.001	0.001	0.003	0.000
727.00	-0.000	0.001	0.001	0.001	0.001	0.001	0.000	0.000	0.000	0.001	0.001	0.001	0.001	0.003	0.000
728.00	-0.000	0.001	0.001	0.001	0.001	0.001	0.000	0.000	0.000	0.001	0.001	0.001	0.001	0.003	0.000
729.00	-0.000	0.001	0.001	0.001	0.001	0.001	0.000	0.000	0.000	0.001	0.001	0.001	0.001	0.003	0.000
730.00	-0.000	0.001	0.001	0.001	0.001	0.001	0.000	0.000	0.000	0.000	0.001	0.001	0.001	0.003	0.000
731.00	-0.000	0.001	0.001	0.001	0.001	0.001	0.000	0.000	0.000	0.000	0.001	0.001	0.001	0.003	0.000
732.00	-0.000	0.001	0.001	0.001	0.001	0.001	0.000	0.000	0.000	0.000	0.001	0.001	0.000	0.003	0.000
733.00	-0.000	0.001	0.001	0.001	0.001	0.001	0.000	0.000	0.000	0.000	0.001	0.001	0.000	0.003	0.000
734.00	-0.000	0.001	0.001	0.001	0.001	0.001	0.000	0.000	0.000	0.000	0.001	0.001	0.000	0.003	0.000
735.00	-0.000	0.001	0.001	0.001	0.001	0.001	0.000	0.000	0.000	0.001	0.001	0.001	0.001	0.003	0.000
736.00	-0.000	0.001	0.001	0.001	0.001	0.001	0.000	0.000	0.000	0.000	0.001	0.001	0.000	0.003	0.000
737.00	-0.000	0.001	0.001	0.001	0.001	0.001	0.000	0.000	0.000	0.000	0.001	0.001	0.001	0.003	0.000
738.00	-0.000	0.001	0.001	0.001	0.001	0.001	0.000	0.000	0.000	0.000	0.001	0.001	0.000	0.003	0.000
739.00	-0.000	0.001	0.001	0.001	0.001	0.001	0.000	0.000	0.000	0.000	0.001	0.001	0.001	0.003	0.000
740.00	0.000	0.001	0.001	0.001	0.001	0.001	0.000	0.000	0.000	0.001	0.001	0.001	0.001	0.003	0.000
741.00	-0.000	0.001	0.001	0.001	0.001	0.001	0.000	0.000	0.000	0.001	0.001	0.001	0.001	0.003	0.000
742.00	-0.000	0.001	0.001	0.001	0.001	0.001	0.000	0.000	0.000	0.001	0.001	0.001	0.001	0.003	0.000
743.00	-0.000	0.001	0.001	0.001	0.001	0.001	0.000	0.000	0.000	0.001	0.001	0.001	0.001	0.003	0.000
744.00	-0.000	0.001	0.001	0.001	0.001	0.001	0.000	0.000	0.000	0.001	0.001	0.001	0.001	0.003	0.000
745.00	-0.000	0.001	0.001	0.001	0.001	0.001	0.000	0.000	0.000	0.001	0.001	0.001	0.001	0.003	0.000
746.00	-0.000	0.001	0.001	0.001	0.001	0.001	0.000	0.000	0.000	0.001	0.001	0.001	0.001	0.003	0.000
747.00	-0.000	0.001	0.001	0.001	0.001	0.001	0.000	0.000	0.000	0.000	0.001	0.001	0.000	0.003	0.000
748.00	-0.000	0.001	0.001	0.001	0.001	0.001	0.000	0.000	0.000	0.001	0.001	0.001	0.000	0.003	0.000
749.00	-0.000	0.001	0.001	0.001	0.001	0.001	0.000	0.000	0.000	0.001	0.001	0.001	0.001	0.003	0.000
750.00	-0.000	0.001	0.001	0.001	0.001	0.001	0.000	0.000	0.000	0.001	0.001	0.001	0.001	0.003	0.000
751.00	-0.000	0.001	0.001	0.001	0.001	0.001	0.000	0.000	0.000	0.001	0.001	0.001	0.001	0.003	0.000
752.00	-0.000	0.001	0.001	0.001	0.001	0.001	0.000	0.000	0.000	0.001	0.001	0.001	0.001	0.003	0.000
753.00	-0.000	0.001	0.001	0.001	0.001	0.001	0.000	0.000	0.000	0.001	0.001	0.001	0.001	0.003	0.000
754.00	-0.000	0.001	0.001	0.001	0.001	0.001	0.000	0.000	0.000	0.001	0.001	0.001	0.001	0.003	0.000
755.00	-0.000	0.001	0.001	0.001	0.001	0.001	0.000	0.000	0.000	0.001	0.001	0.001	0.001	0.003	0.000
756.00	-0.000	0.001	0.001	0.001	0.001	0.001	0.000	0.000	0.000	0.001	0.001	0.001	0.001	0.003	0.000
757.00	-0.000	0.001	0.001	0.001	0.001	0.001	0.000	0.000	0.000	0.001	0.001	0.001	0.001	0.003	0.000
758.00	-0.000	0.001	0.001	0.001	0.001	0.001	0.001	0.000	0.000	0.001	0.001	0.001	0.001	0.003	0.000
759.00	0.000	0.001	0.001	0.001	0.001	0.001	0.001	0.000	0.001	0.001	0.001	0.001	0.001	0.003	0.000
760.00	0.001	0.002	0.002	0.002	0.002	0.002	0.002	0.001	0.001	0.002	0.002	0.002	0.002	0.004	0.001
761.00	0.000	0.001	0.001	0.001	0.001	0.001	0.001	0.000	0.001	0.001	0.001	0.001	0.001	0.003	0.000
762.00	-0.000	0.001	0.001	0.001	0.001	0.001	0.000	0.000	0.000	0.001	0.001	0.001	0.000	0.003	0.000
763.00	-0.000	0.001	0.001	0.001	0.001	0.001	0.000	0.000	0.000	0.001	0.001	0.001	0.000	0.003	0.000
764.00	0.000	0.001	0.001	0.001	0.001	0.001	0.001	0.000	0.000	0.001	0.001	0.001	0.001	0.003	0.000
765.00	0.000	0.001	0.001	0.001	0.001	0.001	0.001	0.000	0.000	0.001	0.001	0.001	0.001	0.003	0.000
766.00	0.000	0.001	0.001	0.001	0.001	0.001	0.001	0.000	0.000	0.001	0.001	0.001	0.001	0.003	0.000
767.00	0.000	0.001	0.001	0.001	0.001	0.001	0.001	0.000	0.000	0.001	0.001	0.001	0.001	0.003	0.000
768.00	0.000	0.001	0.001	0.001	0.001	0.001	0.001	0.000	0.000	0.001	0.001	0.001	0.001	0.003	0.000
769.00	0.000	0.001	0.001	0.001	0.001	0.001	0.001	0.000	0.000	0.001	0.001	0.001	0.000	0.003	0.000
770.00	0.000	0.001	0.001	0.001	0.001	0.001	0.001	0.000	0.000	0.001	0.001	0.001	0.000	0.003	0.000
771.00	0.000	0.001	0.001	0.001	0.001	0.001	0.001	0.000	0.000	0.001	0.001	0.001	0.001	0.003	0.000
772.00	0.000	0.001	0.001	0.001	0.001	0.001	0.001	0.000	0.000	0.001	0.001	0.001	0.001	0.003	0.000
773.00	0.000	0.001	0.001	0.001	0.001	0.001	0.001	0.000	0.000	0.001	0.001	0.001	0.001	0.003	0.000
774.00	0.000	0.001	0.001	0.001	0.001	0.001	0.001	0.000	0.000	0.001	0.001	0.001	0.001	0.003	0.000
775.00	0.000	0.001	0.001	0.001	0.001	0.001	0.001	0.000	0.000	0.001	0.001	0.001	0.000	0.003	0.000
776.00	0.000	0.001	0.001	0.001	0.001	0.001	0.001	0.000	0.000	0.001	0.001	0.001	0.000	0.003	0.000
777.00	0.000	0.001	0.001	0.001	0.001	0.001	0.001	0.000	0.000	0.001	0.001	0.001	0.001	0.003	0.000
778.00	0.000	0.001	0.001	0.001	0.001	0.001	0.001	0.000	0.000	0.001	0.001	0.001	0.001	0.003	0.000
779.00	0.000	0.001	0.001	0.001	0.001	0.001	0.001	0.000	0.000	0.001	0.001	0.001	0.001	0.003	0.000
780.00	0.000	0.001	0.001	0.001	0.001	0.001	0.001	0.000	0.000	0.001	0.001	0.001	0.001	0.003	0.000
781.00	0.000	0.001	0.001	0.001	0.001	0.001	0.001	0.000	0.000	0.001	0.001	0.001	0.001	0.003	0.000
782.00	0.000	0.001	0.001	0.001	0.001	0.001	0.001	0.000	0.000	0.001	0.001	0.001	0.001	0.003	0.000
783.00	0.000	0.001	0.001	0.001	0.001	0.001	0.001	0.000	0.000	0.001	0.001	0.001	0.001	0.003	0.000
784.00	0.000	0.001	0.001	0.001	0.001	0.001	0.001	0.000	0.000	0.001	0.001	0.001	0.001	0.003	0.000
785.00	0.000	0.001	0.001	0.001	0.001	0.001	0.001	0.000	0.000	0.001	0.001	0.001	0.001	0.003	0.000
786.00	0.000	0.001	0.001	0.001	0.001	0.001	0.001	0.000	0.000	0.001	0.001	0.001	0.001	0.003	0.000
787.00	0.000	0.001	0.001	0.001	0.001	0.001	0.001	0.000	0.000	0.001	0.001	0.001	0.001	0.003	0.000
788.00	0.000	0.001	0.001	0.001	0.001	0.001	0.001	0.000	0.000	0.001	0.001	0.001	0.001	0.003	0.000
789.00	0.000	0.001	0.001	0.001	0.001	0.001	0.001	0.001	0.000	0.001	0.001	0.001	0.001	0.003	0.000
790.00	0.000	0.001	0.001	0.001	0.001	0.001	0.001	0.000	0.000	0.001	0.001	0.001	0.001	0.003	0.000
791.00	0.000	0.001	0.001	0.001	0.001	0.001	0.001	0.000	0.000	0.001	0.001	0.001	0.001	0.003	0.000
792.00	0.000	0.001	0.001	0.001	0.001	0.001	0.001	0.000	0.000	0.001	0.001	0.001	0.001	0.003	0.000
793.00	0.000	0.001	0.001	0.001	0.001	0.001	0.001	0.001	0.001	0.001	0.001	0.001	0.001	0.003	0.001
794.00	0.000	0.001	0.001	0.001	0.001	0.001	0.001	0.000	0.000	0.001	0.001	0.001	0.001	0.003	0.000
795.00	0.000	0.001	0.001	0.001	0.001	0.001	0.001	0.000	0.000	0.001	0.001	0.001	0.001	0.003	0.000
796.00	0.000	0.001	0.001	0.001	0.001	0.001	0.001	0.000	0.000	0.001	0.001	0.001	0.001	0.003	0.000
797.00	0.000	0.001	0.001	0.001	0.001	0.001	0.001	0.000	0.000	0.001	0.001	0.001	0.001	0.003	0.000
798.00	0.000	0.001	0.001	0.001	0.001	0.001	0.001	0.000	0.000	0.001	0.001	0.001	0.001	0.003	0.000
799.00	0.000	0.001	0.001	0.001	0.001	0.001	0.001	0.000	0.000	0.001	0.001	0.001	0.001	0.003	0.000
800.00	0.000	0.001	0.001	0.001	0.001	0.001	0.001	0.000	0.000	0.001	0.001	0.001	0.000	0.003	0.000
801.00	0.000	0.001	0.001	0.001	0.001	0.001	0.001	0.000	0.000	0.001	0.001	0.001	0.001	0.003	0.000
802.00	0.000	0.001	0.001	0.001	0.001	0.001	0.001	0.000	0.001	0.001	0.001	0.001	0.001	0.003	0.000
803.00	0.000	0.001	0.001	0.001	0.001	0.001	0.001	0.000	0.000	0.001	0.001	0.001	0.001	0.003	0.000
804.00	0.000	0.001	0.001	0.001	0.001	0.001	0.001	0.000	0.001	0.001	0.001	0.001	0.001	0.003	0.000
805.00	0.000	0.001	0.001	0.001	0.001	0.001	0.001	0.000	0.000	0.001	0.001	0.001	0.001	0.003	0.000
806.00	0.000	0.001	0.001	0.001	0.001	0.001	0.001	0.000	0.001	0.001	0.001	0.001	0.001	0.003	0.000
807.00	0.000	0.001	0.001	0.001	0.001	0.001	0.001	0.000	0.001	0.001	0.001	0.001	0.001	0.003	0.001
808.00	0.000	0.001	0.001	0.001	0.001	0.001	0.001	0.000	0.001	0.001	0.001	0.001	0.001	0.003	0.000
809.00	0.000	0.001	0.001	0.001	0.001	0.001	0.001	0.000	0.000	0.001	0.001	0.001	0.001	0.003	0.000
810.00	0.000	0.001	0.001	0.001	0.001	0.001	0.001	0.000	0.001	0.001	0.001	0.001	0.001	0.003	0.000
811.00	0.000	0.001	0.001	0.001	0.001	0.001	0.001	0.000	0.000	0.001	0.001	0.001	0.001	0.003	0.000
812.00	0.000	0.001	0.001	0.001	0.001	0.001	0.001	0.000	0.000	0.001	0.001	0.001	0.001	0.003	0.000
813.00	0.000	0.001	0.001	0.001	0.001	0.001	0.001	0.000	0.000	0.001	0.001	0.001	0.001	0.003	0.000
814.00	0.000	0.001	0.001	0.001	0.001	0.001	0.001	0.000	0.000	0.001	0.001	0.001	0.001	0.003	0.000
815.00	0.000	0.001	0.001	0.001	0.001	0.001	0.001	0.000	0.001	0.001	0.001	0.001	0.001	0.003	0.000
816.00	0.000	0.001	0.001	0.001	0.001	0.001	0.001	0.000	0.001	0.001	0.001	0.001	0.001	0.003	0.000
817.00	0.000	0.001	0.001	0.001	0.001	0.001	0.001	0.001	0.001	0.001	0.001	0.001	0.001	0.003	0.000
818.00	0.000	0.001	0.001	0.001	0.001	0.001	0.001	0.000	0.001	0.001	0.001	0.001	0.001	0.003	0.000
819.00	0.000	0.001	0.001	0.001	0.001	0.001	0.001	0.000	0.001	0.001	0.001	0.001	0.001	0.003	0.000
820.00	0.000	0.001	0.001	0.001	0.001	0.001	0.001	0.000	0.001	0.001	0.001	0.001	0.001	0.003	0.000
821.00	0.000	0.001	0.001	0.001	0.001	0.001	0.001	0.000	0.001	0.001	0.001	0.001	0.001	0.003	0.000
822.00	0.000	0.001	0.001	0.001	0.001	0.001	0.001	0.000	0.000	0.001	0.001	0.001	0.001	0.003	0.000
823.00	0.000	0.001	0.001	0.001	0.001	0.001	0.001	0.000	0.001	0.001	0.001	0.001	0.001	0.003	0.000
824.00	0.000	0.001	0.001	0.001	0.001	0.001	0.001	0.000	0.000	0.001	0.001	0.001	0.001	0.003	0.000
825.00	0.000	0.001	0.001	0.001	0.001	0.001	0.001	0.000	0.000	0.001	0.001	0.001	0.001	0.003	0.000
826.00	0.000	0.001	0.001	0.001	0.001	0.001	0.001	0.000	0.000	0.001	0.001	0.001	0.001	0.003	0.000
827.00	0.000	0.001	0.001	0.001	0.001	0.001	0.001	0.000	0.000	0.001	0.001	0.001	0.001	0.003	0.000
828.00	0.000	0.001	0.001	0.001	0.001	0.001	0.001	0.000	0.000	0.001	0.001	0.001	0.001	0.003	0.000
829.00	0.000	0.001	0.001	0.001	0.001	0.001	0.001	0.000	0.000	0.001	0.001	0.001	0.001	0.003	0.000
830.00	0.000	0.001	0.001	0.001	0.001	0.001	0.001	0.000	0.000	0.001	0.001	0.001	0.001	0.003	0.000
831.00	0.000	0.001	0.001	0.001	0.001	0.001	0.001	0.000	0.000	0.001	0.001	0.001	0.001	0.003	0.000
832.00	0.000	0.001	0.001	0.001	0.001	0.001	0.001	0.000	0.000	0.001	0.001	0.001	0.001	0.003	0.000
833.00	0.000	0.001	0.001	0.001	0.001	0.001	0.001	0.000	0.000	0.001	0.001	0.001	0.001	0.003	0.000
834.00	0.000	0.001	0.001	0.001	0.001	0.001	0.001	0.000	0.000	0.001	0.001	0.001	0.001	0.003	0.000
835.00	0.000	0.001	0.001	0.001	0.001	0.001	0.001	0.000	0.000	0.001	0.001	0.001	0.001	0.003	0.000
836.00	0.000	0.001	0.001	0.001	0.001	0.001	0.001	0.000	0.000	0.001	0.001	0.001	0.001	0.003	0.000
837.00	0.000	0.001	0.001	0.001	0.001	0.001	0.001	0.000	0.000	0.001	0.001	0.001	0.001	0.003	0.000
838.00	0.000	0.001	0.001	0.001	0.001	0.001	0.001	0.000	0.000	0.001	0.001	0.001	0.001	0.003	0.000
839.00	0.000	0.001	0.001	0.001	0.001	0.001	0.001	0.000	0.000	0.001	0.001	0.001	0.001	0.003	0.000
840.00	0.000	0.001	0.001	0.001	0.001	0.001	0.001	0.000	0.000	0.001	0.001	0.001	0.001	0.003	0.000
841.00	0.000	0.001	0.001	0.001	0.001	0.001	0.001	0.000	0.000	0.001	0.001	0.001	0.001	0.003	0.000
842.00	0.000	0.001	0.001	0.001	0.001	0.001	0.001	0.000	0.000	0.001	0.001	0.001	0.001	0.003	0.000
843.00	0.000	0.001	0.001	0.001	0.001	0.001	0.001	0.000	0.000	0.001	0.001	0.001	0.001	0.003	0.000
844.00	0.000	0.001	0.001	0.001	0.001	0.001	0.001	0.000	0.000	0.001	0.001	0.001	0.001	0.003	0.000
845.00	0.000	0.001	0.001	0.001	0.001	0.001	0.001	0.000	0.000	0.001	0.001	0.001	0.001	0.003	0.000
846.00	0.000	0.001	0.001	0.001	0.001	0.001	0.001	0.000	0.000	0.001	0.001	0.001	0.001	0.003	0.000
847.00	0.000	0.001	0.001	0.001	0.001	0.001	0.001	0.000	0.000	0.001	0.001	0.001	0.001	0.003	0.000
848.00	0.000	0.001	0.001	0.001	0.001	0.001	0.001	0.000	0.000	0.001	0.001	0.001	0.001	0.003	0.000
849.00	0.000	0.001	0.001	0.001	0.001	0.001	0.001	0.000	0.000	0.001	0.001	0.001	0.001	0.003	0.000
850.00	0.000	0.001	0.001	0.001	0.001	0.001	0.001	0.000	0.000	0.001	0.001	0.001	0.001	0.003	0.000
