Wavelength nm.,MilliQ,CC5_22may24_9r2,CC4_19jun24_01r1,CC5_22may24_01r1,CC2_19jun24_01r2,CC3_11jul24_15r1,CC4_19jun24_BOTr2,CC5_22may24_13r1,CC5_22may24_6r2,CC5_22may24_15r2,CS2_11jul24_01r2,CC4_19jun24_9r2,CC3_11jul24_BOTr1,CC2_11jul24_BOTr1,CC4_19jun24_6r1
190,0.007,0.481,0.403,0.54,0.391,0.393,0.484,0.456,0.395,0.376,0.462,0.405,0.5,0.869,0.387
191,0.007,0.438,0.364,0.5,0.355,0.362,0.451,0.422,0.359,0.344,0.443,0.368,0.436,0.721,0.357
192,0.009,0.403,0.333,0.462,0.323,0.331,0.415,0.39,0.329,0.315,0.426,0.334,0.381,0.595,0.325
193,0.01,0.366,0.301,0.426,0.292,0.295,0.38,0.358,0.296,0.284,0.409,0.301,0.326,0.471,0.292
194,0.011,0.338,0.274,0.395,0.267,0.268,0.354,0.333,0.271,0.261,0.394,0.274,0.287,0.39,0.266
195,0.012,0.311,0.248,0.367,0.244,0.242,0.328,0.309,0.248,0.238,0.381,0.249,0.252,0.323,0.242
196,0.013,0.289,0.227,0.342,0.225,0.22,0.306,0.29,0.229,0.219,0.37,0.228,0.224,0.274,0.221
197,0.013,0.27,0.208,0.32,0.207,0.202,0.286,0.272,0.213,0.203,0.359,0.211,0.202,0.24,0.204
198,0.013,0.253,0.193,0.301,0.193,0.186,0.269,0.257,0.199,0.188,0.35,0.195,0.183,0.214,0.188
199,0.013,0.238,0.179,0.283,0.18,0.174,0.253,0.245,0.186,0.176,0.341,0.183,0.169,0.195,0.175
200,0.012,0.226,0.167,0.265,0.169,0.162,0.239,0.235,0.175,0.165,0.333,0.171,0.157,0.179,0.164
201,0.009,0.215,0.157,0.249,0.159,0.152,0.228,0.225,0.165,0.155,0.325,0.16,0.148,0.167,0.154
202,0.007,0.205,0.148,0.233,0.15,0.143,0.217,0.216,0.156,0.147,0.317,0.152,0.139,0.157,0.145
203,0.006,0.197,0.141,0.22,0.143,0.135,0.209,0.208,0.149,0.14,0.31,0.145,0.132,0.15,0.138
204,0.005,0.189,0.133,0.208,0.136,0.128,0.201,0.201,0.142,0.133,0.304,0.139,0.125,0.143,0.132
205,0.004,0.181,0.127,0.197,0.13,0.122,0.193,0.195,0.136,0.128,0.296,0.133,0.12,0.137,0.126
206,0.004,0.175,0.122,0.187,0.124,0.117,0.186,0.188,0.13,0.123,0.288,0.127,0.115,0.133,0.121
207,0.004,0.168,0.117,0.178,0.12,0.112,0.18,0.182,0.126,0.118,0.281,0.123,0.111,0.128,0.117
208,0.004,0.163,0.113,0.171,0.116,0.109,0.174,0.177,0.122,0.114,0.273,0.119,0.107,0.125,0.113
209,0.003,0.157,0.109,0.163,0.112,0.105,0.168,0.171,0.118,0.111,0.265,0.115,0.104,0.121,0.109
210,0.003,0.152,0.106,0.155,0.108,0.101,0.162,0.165,0.114,0.108,0.256,0.112,0.101,0.117,0.106
211,0.003,0.147,0.102,0.149,0.105,0.098,0.156,0.159,0.11,0.104,0.247,0.109,0.098,0.114,0.103
212,0.003,0.142,0.099,0.143,0.102,0.095,0.151,0.153,0.107,0.102,0.237,0.106,0.095,0.111,0.1
213,0.003,0.137,0.096,0.138,0.099,0.092,0.145,0.147,0.104,0.099,0.227,0.103,0.092,0.107,0.098
214,0.003,0.132,0.094,0.133,0.096,0.09,0.139,0.141,0.101,0.096,0.217,0.1,0.09,0.104,0.095
215,0.003,0.127,0.091,0.129,0.093,0.087,0.134,0.135,0.099,0.094,0.207,0.097,0.088,0.102,0.093
216,0.003,0.123,0.089,0.125,0.091,0.085,0.129,0.129,0.097,0.092,0.197,0.095,0.085,0.099,0.09
217,0.003,0.118,0.086,0.121,0.088,0.083,0.123,0.123,0.094,0.089,0.187,0.092,0.083,0.096,0.088
218,0.003,0.114,0.085,0.118,0.086,0.081,0.118,0.118,0.092,0.087,0.178,0.09,0.081,0.094,0.086
219,0.003,0.111,0.083,0.115,0.084,0.079,0.114,0.113,0.09,0.085,0.17,0.088,0.08,0.092,0.084
220,0.003,0.107,0.081,0.112,0.083,0.077,0.109,0.108,0.088,0.083,0.161,0.086,0.078,0.09,0.082
221,0.003,0.104,0.079,0.109,0.081,0.075,0.105,0.104,0.086,0.082,0.153,0.084,0.076,0.088,0.081
222,0.003,0.1,0.077,0.107,0.079,0.074,0.101,0.099,0.085,0.08,0.145,0.082,0.075,0.086,0.079
223,0.003,0.097,0.076,0.104,0.077,0.072,0.097,0.095,0.083,0.079,0.138,0.081,0.073,0.084,0.078
224,0.003,0.095,0.075,0.102,0.076,0.071,0.094,0.091,0.082,0.078,0.132,0.079,0.072,0.083,0.077
225,0.003,0.092,0.073,0.1,0.075,0.07,0.09,0.088,0.08,0.076,0.125,0.078,0.071,0.081,0.075
226,0.003,0.089,0.071,0.098,0.073,0.068,0.087,0.084,0.079,0.074,0.119,0.076,0.069,0.079,0.074
227,0.002,0.087,0.07,0.096,0.072,0.067,0.084,0.081,0.077,0.073,0.114,0.074,0.068,0.078,0.072
228,0.002,0.085,0.068,0.094,0.07,0.065,0.081,0.078,0.076,0.072,0.109,0.073,0.067,0.076,0.071
229,0.002,0.083,0.067,0.092,0.069,0.064,0.078,0.076,0.075,0.07,0.105,0.072,0.066,0.075,0.07
230,0.002,0.081,0.066,0.09,0.068,0.063,0.076,0.073,0.073,0.069,0.1,0.07,0.065,0.074,0.068
231,0.002,0.079,0.065,0.088,0.066,0.062,0.074,0.071,0.072,0.068,0.097,0.069,0.063,0.072,0.067
232,0.001,0.077,0.063,0.086,0.065,0.061,0.071,0.069,0.071,0.067,0.093,0.068,0.062,0.071,0.066
233,0.001,0.075,0.062,0.084,0.064,0.06,0.069,0.067,0.07,0.066,0.09,0.067,0.061,0.07,0.065
234,0.001,0.074,0.061,0.083,0.063,0.059,0.068,0.065,0.069,0.065,0.088,0.065,0.06,0.069,0.064
235,0.001,0.072,0.06,0.081,0.062,0.058,0.066,0.064,0.068,0.063,0.085,0.064,0.059,0.067,0.063
236,0,0.071,0.059,0.079,0.061,0.057,0.064,0.062,0.066,0.062,0.083,0.063,0.058,0.066,0.062
237,0,0.07,0.058,0.078,0.06,0.056,0.063,0.061,0.065,0.061,0.081,0.062,0.057,0.065,0.061
238,0,0.068,0.057,0.076,0.059,0.055,0.062,0.06,0.064,0.06,0.079,0.061,0.057,0.065,0.06
239,0,0.067,0.056,0.075,0.058,0.055,0.061,0.059,0.063,0.06,0.077,0.061,0.056,0.064,0.059
240,0,0.066,0.056,0.074,0.058,0.054,0.06,0.058,0.063,0.059,0.076,0.06,0.055,0.063,0.058
241,0,0.065,0.055,0.072,0.057,0.053,0.059,0.057,0.062,0.058,0.075,0.059,0.054,0.062,0.058
242,0,0.064,0.054,0.071,0.056,0.052,0.058,0.056,0.061,0.058,0.073,0.058,0.054,0.062,0.057
243,0,0.063,0.054,0.07,0.056,0.052,0.057,0.055,0.06,0.057,0.072,0.058,0.053,0.061,0.056
244,0,0.062,0.053,0.068,0.055,0.051,0.056,0.054,0.06,0.056,0.071,0.057,0.053,0.06,0.056
245,0,0.061,0.053,0.067,0.054,0.051,0.055,0.054,0.059,0.056,0.07,0.056,0.052,0.06,0.055
246,0,0.061,0.052,0.066,0.054,0.05,0.054,0.053,0.058,0.055,0.069,0.055,0.051,0.059,0.054
247,0,0.06,0.051,0.065,0.053,0.05,0.054,0.052,0.057,0.054,0.068,0.055,0.051,0.059,0.054
248,0,0.059,0.051,0.064,0.053,0.049,0.053,0.052,0.057,0.054,0.067,0.054,0.051,0.058,0.053
249,0,0.058,0.051,0.063,0.053,0.049,0.052,0.051,0.056,0.054,0.067,0.054,0.05,0.058,0.053
250,0,0.058,0.051,0.062,0.052,0.048,0.052,0.051,0.056,0.053,0.066,0.053,0.05,0.057,0.052
251,0,0.057,0.05,0.061,0.052,0.048,0.052,0.05,0.055,0.053,0.065,0.053,0.05,0.057,0.052
252,0,0.057,0.05,0.061,0.052,0.048,0.051,0.05,0.055,0.053,0.065,0.053,0.049,0.057,0.052
253,0,0.056,0.049,0.06,0.051,0.047,0.051,0.049,0.054,0.052,0.064,0.052,0.049,0.056,0.051
254,0,0.056,0.049,0.059,0.051,0.047,0.05,0.049,0.054,0.052,0.064,0.052,0.048,0.056,0.051
255,0,0.055,0.049,0.058,0.051,0.047,0.05,0.048,0.053,0.051,0.063,0.051,0.048,0.055,0.05
256,0,0.055,0.049,0.058,0.05,0.047,0.049,0.048,0.053,0.051,0.063,0.051,0.048,0.055,0.05
257,0,0.054,0.048,0.057,0.05,0.046,0.049,0.047,0.052,0.051,0.062,0.051,0.047,0.055,0.05
258,0,0.054,0.048,0.057,0.05,0.046,0.049,0.047,0.052,0.05,0.061,0.05,0.047,0.054,0.049
259,0,0.053,0.047,0.056,0.049,0.045,0.048,0.047,0.052,0.05,0.061,0.05,0.046,0.054,0.049
260,0,0.053,0.047,0.056,0.049,0.045,0.048,0.046,0.051,0.049,0.061,0.05,0.046,0.053,0.048
261,0,0.052,0.047,0.055,0.048,0.044,0.048,0.046,0.051,0.049,0.06,0.049,0.046,0.053,0.048
262,0,0.052,0.046,0.055,0.048,0.044,0.047,0.045,0.05,0.049,0.06,0.049,0.045,0.052,0.048
263,0,0.051,0.046,0.055,0.047,0.044,0.047,0.045,0.05,0.048,0.059,0.048,0.045,0.052,0.047
264,0,0.051,0.045,0.054,0.047,0.043,0.046,0.044,0.049,0.047,0.059,0.048,0.044,0.051,0.046
265,0,0.05,0.044,0.053,0.046,0.042,0.046,0.044,0.049,0.046,0.058,0.047,0.043,0.051,0.046
266,0,0.05,0.044,0.053,0.046,0.042,0.045,0.043,0.048,0.046,0.058,0.047,0.043,0.05,0.045
267,0,0.049,0.043,0.052,0.045,0.041,0.045,0.043,0.047,0.046,0.057,0.046,0.042,0.049,0.045
268,0,0.049,0.043,0.052,0.045,0.041,0.044,0.042,0.047,0.045,0.057,0.045,0.041,0.049,0.044
269,0,0.048,0.042,0.051,0.044,0.04,0.043,0.042,0.046,0.044,0.056,0.045,0.041,0.048,0.044
270,0,0.048,0.042,0.051,0.044,0.039,0.043,0.041,0.046,0.044,0.056,0.045,0.04,0.048,0.043
271,0,0.047,0.041,0.05,0.043,0.039,0.042,0.041,0.045,0.043,0.055,0.044,0.04,0.047,0.043
272,0,0.046,0.04,0.049,0.042,0.038,0.042,0.04,0.044,0.042,0.055,0.043,0.039,0.046,0.042
273,0,0.046,0.039,0.049,0.041,0.038,0.041,0.04,0.044,0.042,0.054,0.043,0.038,0.046,0.041
274,0,0.045,0.039,0.048,0.041,0.037,0.041,0.039,0.043,0.041,0.054,0.042,0.038,0.045,0.041
275,0,0.045,0.038,0.047,0.04,0.036,0.04,0.038,0.042,0.04,0.053,0.042,0.037,0.044,0.04
276,0,0.044,0.037,0.046,0.039,0.036,0.039,0.038,0.041,0.039,0.052,0.041,0.036,0.043,0.039
277,0,0.043,0.036,0.046,0.039,0.035,0.039,0.037,0.041,0.039,0.052,0.04,0.035,0.043,0.039
278,0,0.043,0.036,0.045,0.038,0.034,0.038,0.036,0.04,0.038,0.051,0.04,0.035,0.042,0.038
279,0,0.042,0.035,0.044,0.037,0.033,0.037,0.036,0.039,0.037,0.05,0.039,0.034,0.041,0.037
280,0,0.041,0.034,0.043,0.036,0.033,0.036,0.035,0.039,0.036,0.05,0.038,0.033,0.041,0.036
281,0,0.041,0.033,0.042,0.036,0.032,0.036,0.035,0.038,0.036,0.049,0.038,0.032,0.04,0.036
282,0,0.04,0.033,0.042,0.035,0.031,0.035,0.034,0.037,0.035,0.049,0.037,0.032,0.039,0.035
283,0,0.039,0.032,0.041,0.034,0.03,0.034,0.033,0.036,0.034,0.048,0.036,0.031,0.038,0.034
284,0,0.039,0.031,0.04,0.033,0.029,0.034,0.032,0.036,0.033,0.047,0.035,0.03,0.037,0.034
285,0,0.038,0.03,0.039,0.032,0.029,0.033,0.032,0.035,0.033,0.046,0.035,0.029,0.037,0.033
286,0,0.037,0.029,0.038,0.032,0.028,0.033,0.032,0.034,0.032,0.046,0.034,0.029,0.036,0.032
287,0,0.036,0.029,0.037,0.031,0.028,0.032,0.031,0.034,0.031,0.045,0.034,0.028,0.035,0.032
288,0,0.035,0.028,0.036,0.03,0.027,0.031,0.03,0.033,0.03,0.044,0.033,0.027,0.034,0.031
289,0,0.035,0.027,0.035,0.03,0.026,0.03,0.03,0.032,0.03,0.044,0.032,0.027,0.034,0.03
290,0,0.034,0.027,0.034,0.029,0.025,0.03,0.029,0.031,0.029,0.043,0.032,0.026,0.033,0.03
291,0,0.034,0.026,0.033,0.028,0.025,0.029,0.029,0.031,0.028,0.042,0.031,0.025,0.033,0.029
292,0,0.033,0.025,0.032,0.028,0.024,0.029,0.028,0.03,0.028,0.042,0.03,0.025,0.032,0.028
293,0,0.032,0.025,0.031,0.027,0.024,0.028,0.027,0.029,0.027,0.041,0.03,0.024,0.031,0.027
294,0,0.032,0.024,0.031,0.026,0.023,0.027,0.027,0.028,0.026,0.04,0.029,0.023,0.031,0.027
295,0,0.031,0.024,0.03,0.026,0.023,0.027,0.026,0.028,0.026,0.04,0.028,0.023,0.03,0.026
296,0,0.03,0.023,0.029,0.025,0.022,0.026,0.025,0.027,0.025,0.039,0.028,0.022,0.029,0.026
297,0,0.03,0.023,0.028,0.024,0.021,0.026,0.025,0.027,0.025,0.038,0.027,0.022,0.029,0.025
298,0,0.029,0.022,0.027,0.024,0.021,0.025,0.024,0.026,0.024,0.038,0.027,0.021,0.028,0.025
299,0,0.029,0.021,0.027,0.023,0.02,0.024,0.024,0.025,0.023,0.037,0.026,0.021,0.028,0.024
300,0,0.028,0.021,0.026,0.023,0.02,0.024,0.023,0.025,0.023,0.036,0.026,0.021,0.027,0.024
301,0,0.028,0.021,0.026,0.022,0.019,0.023,0.023,0.025,0.023,0.036,0.025,0.02,0.027,0.023
302,0,0.027,0.02,0.025,0.022,0.019,0.023,0.023,0.024,0.022,0.035,0.025,0.02,0.026,0.023
303,0,0.026,0.02,0.024,0.021,0.018,0.022,0.022,0.024,0.021,0.035,0.024,0.019,0.026,0.022
304,0,0.026,0.019,0.024,0.021,0.018,0.022,0.022,0.023,0.021,0.034,0.024,0.019,0.025,0.022
305,0,0.026,0.019,0.023,0.02,0.018,0.022,0.021,0.022,0.021,0.034,0.023,0.018,0.025,0.022
306,0,0.025,0.018,0.022,0.02,0.017,0.021,0.021,0.022,0.02,0.033,0.023,0.018,0.025,0.021
307,0,0.024,0.018,0.022,0.019,0.017,0.021,0.02,0.022,0.02,0.032,0.022,0.018,0.024,0.021
308,0,0.024,0.018,0.022,0.019,0.016,0.02,0.02,0.021,0.02,0.032,0.022,0.017,0.024,0.02
309,0,0.023,0.017,0.021,0.019,0.016,0.02,0.02,0.021,0.019,0.031,0.022,0.017,0.024,0.02
310,0,0.023,0.017,0.021,0.018,0.016,0.019,0.019,0.02,0.018,0.03,0.021,0.016,0.023,0.019
311,0,0.022,0.017,0.02,0.018,0.015,0.019,0.019,0.02,0.018,0.03,0.021,0.016,0.023,0.019
312,0,0.022,0.016,0.02,0.018,0.015,0.018,0.019,0.02,0.018,0.03,0.021,0.016,0.023,0.019
313,0,0.022,0.016,0.02,0.017,0.015,0.018,0.018,0.019,0.018,0.029,0.02,0.016,0.022,0.019
314,0,0.021,0.016,0.019,0.017,0.015,0.018,0.018,0.019,0.017,0.029,0.02,0.015,0.022,0.018
315,0,0.021,0.016,0.019,0.017,0.014,0.017,0.018,0.019,0.017,0.028,0.02,0.015,0.022,0.018
316,0,0.021,0.015,0.018,0.017,0.014,0.017,0.017,0.018,0.017,0.028,0.019,0.015,0.021,0.017
317,0,0.02,0.015,0.018,0.016,0.014,0.017,0.017,0.018,0.016,0.027,0.019,0.015,0.021,0.017
318,0,0.02,0.015,0.018,0.016,0.013,0.016,0.017,0.018,0.016,0.027,0.018,0.014,0.021,0.017
319,0,0.02,0.014,0.017,0.015,0.013,0.016,0.016,0.017,0.016,0.026,0.018,0.014,0.02,0.016
320,-0.001,0.019,0.014,0.017,0.015,0.013,0.016,0.016,0.017,0.015,0.026,0.018,0.014,0.02,0.016
321,0,0.019,0.014,0.017,0.015,0.013,0.016,0.016,0.017,0.015,0.026,0.018,0.013,0.02,0.016
322,0,0.019,0.014,0.016,0.015,0.012,0.016,0.016,0.016,0.015,0.025,0.017,0.013,0.02,0.016
323,0,0.018,0.013,0.016,0.014,0.012,0.015,0.015,0.016,0.014,0.025,0.017,0.013,0.019,0.015
324,0,0.018,0.013,0.016,0.014,0.012,0.015,0.015,0.016,0.014,0.025,0.017,0.013,0.019,0.015
325,0,0.018,0.013,0.016,0.014,0.012,0.015,0.015,0.016,0.014,0.025,0.017,0.013,0.019,0.015
326,0,0.018,0.013,0.015,0.014,0.012,0.014,0.015,0.015,0.014,0.024,0.017,0.012,0.019,0.015
327,0,0.018,0.013,0.015,0.014,0.012,0.014,0.014,0.015,0.014,0.024,0.016,0.012,0.019,0.015
328,0,0.017,0.012,0.015,0.013,0.011,0.014,0.014,0.015,0.013,0.023,0.016,0.012,0.018,0.014
329,0,0.017,0.012,0.014,0.013,0.011,0.014,0.014,0.015,0.013,0.023,0.016,0.012,0.018,0.014
330,0,0.017,0.012,0.014,0.013,0.011,0.013,0.014,0.015,0.013,0.023,0.015,0.011,0.018,0.014
331,0,0.016,0.012,0.014,0.013,0.011,0.013,0.013,0.014,0.013,0.023,0.015,0.011,0.018,0.014
332,0,0.016,0.011,0.014,0.013,0.01,0.013,0.013,0.014,0.012,0.022,0.015,0.011,0.018,0.013
333,0,0.016,0.011,0.014,0.012,0.01,0.013,0.013,0.014,0.012,0.022,0.015,0.011,0.018,0.013
334,0,0.016,0.011,0.013,0.012,0.01,0.013,0.013,0.013,0.012,0.022,0.014,0.011,0.018,0.013
335,0,0.015,0.011,0.013,0.012,0.01,0.012,0.012,0.013,0.012,0.021,0.014,0.011,0.017,0.013
336,0,0.015,0.011,0.013,0.011,0.01,0.012,0.012,0.013,0.011,0.021,0.014,0.01,0.017,0.012
337,0,0.015,0.01,0.012,0.011,0.009,0.012,0.012,0.013,0.011,0.02,0.014,0.01,0.017,0.012
338,0,0.014,0.01,0.013,0.011,0.009,0.012,0.012,0.012,0.011,0.02,0.013,0.01,0.016,0.012
339,0,0.015,0.01,0.013,0.011,0.01,0.012,0.012,0.013,0.011,0.02,0.014,0.01,0.016,0.012
340,0.001,0.015,0.011,0.013,0.012,0.01,0.012,0.013,0.013,0.012,0.021,0.014,0.011,0.017,0.013
341,0,0.014,0.01,0.012,0.01,0.009,0.011,0.011,0.012,0.011,0.019,0.013,0.01,0.016,0.012
342,0,0.013,0.01,0.012,0.01,0.009,0.011,0.011,0.012,0.01,0.019,0.013,0.009,0.016,0.011
343,0,0.013,0.01,0.011,0.01,0.009,0.011,0.011,0.011,0.01,0.019,0.013,0.009,0.015,0.011
344,0,0.013,0.01,0.011,0.01,0.008,0.011,0.011,0.011,0.01,0.019,0.013,0.009,0.016,0.011
345,0,0.013,0.009,0.011,0.01,0.008,0.01,0.01,0.011,0.01,0.018,0.012,0.009,0.015,0.01
346,0,0.012,0.009,0.011,0.009,0.008,0.01,0.01,0.01,0.009,0.018,0.012,0.009,0.015,0.01
347,0,0.013,0.009,0.011,0.01,0.008,0.01,0.01,0.011,0.009,0.018,0.012,0.009,0.015,0.01
348,0,0.012,0.009,0.01,0.009,0.008,0.01,0.01,0.01,0.009,0.017,0.012,0.008,0.015,0.01
349,0,0.012,0.008,0.01,0.009,0.008,0.009,0.01,0.01,0.009,0.017,0.012,0.008,0.015,0.01
350,0,0.012,0.009,0.01,0.009,0.008,0.009,0.01,0.01,0.009,0.017,0.012,0.008,0.015,0.01
351,0,0.012,0.008,0.01,0.009,0.008,0.01,0.009,0.01,0.009,0.017,0.011,0.008,0.014,0.009
352,0,0.012,0.008,0.01,0.009,0.007,0.009,0.01,0.009,0.009,0.017,0.011,0.008,0.014,0.01
353,0,0.011,0.008,0.01,0.009,0.007,0.009,0.009,0.009,0.009,0.016,0.011,0.008,0.015,0.009
354,0,0.011,0.008,0.009,0.009,0.007,0.009,0.009,0.009,0.008,0.016,0.011,0.008,0.014,0.009
355,0,0.011,0.008,0.009,0.009,0.007,0.009,0.009,0.009,0.008,0.016,0.011,0.008,0.014,0.009
356,0,0.01,0.008,0.009,0.008,0.007,0.009,0.009,0.009,0.008,0.015,0.01,0.007,0.014,0.009
357,0,0.01,0.007,0.009,0.008,0.007,0.008,0.008,0.009,0.008,0.015,0.01,0.007,0.014,0.008
358,0,0.01,0.007,0.009,0.008,0.006,0.008,0.008,0.008,0.008,0.015,0.01,0.007,0.013,0.008
359,0,0.01,0.008,0.009,0.008,0.007,0.008,0.008,0.008,0.008,0.015,0.01,0.007,0.014,0.008
360,0,0.01,0.007,0.009,0.008,0.006,0.008,0.008,0.008,0.008,0.014,0.01,0.007,0.013,0.008
361,-0.001,0.01,0.007,0.009,0.008,0.006,0.008,0.008,0.008,0.007,0.014,0.01,0.007,0.013,0.008
362,0,0.01,0.007,0.009,0.008,0.006,0.008,0.008,0.008,0.007,0.014,0.01,0.007,0.013,0.008
363,0,0.01,0.007,0.008,0.007,0.006,0.008,0.008,0.008,0.007,0.014,0.009,0.007,0.013,0.008
364,0,0.009,0.007,0.008,0.007,0.006,0.008,0.007,0.008,0.007,0.014,0.009,0.006,0.013,0.008
365,0,0.009,0.007,0.008,0.007,0.006,0.007,0.007,0.008,0.007,0.013,0.009,0.006,0.013,0.007
366,0,0.009,0.007,0.008,0.007,0.006,0.007,0.007,0.007,0.007,0.013,0.009,0.006,0.012,0.007
367,0,0.009,0.007,0.008,0.007,0.006,0.007,0.007,0.007,0.007,0.013,0.009,0.006,0.012,0.007
368,0,0.009,0.006,0.008,0.007,0.005,0.007,0.007,0.007,0.007,0.013,0.009,0.006,0.012,0.007
369,0,0.009,0.006,0.007,0.007,0.005,0.007,0.007,0.007,0.006,0.012,0.008,0.006,0.012,0.007
370,0,0.008,0.006,0.007,0.006,0.005,0.007,0.006,0.007,0.006,0.012,0.008,0.006,0.012,0.006
371,0,0.008,0.006,0.007,0.006,0.005,0.007,0.006,0.007,0.006,0.012,0.008,0.005,0.012,0.006
372,0,0.008,0.006,0.007,0.006,0.005,0.006,0.006,0.007,0.006,0.012,0.008,0.005,0.012,0.006
373,0,0.008,0.006,0.007,0.006,0.005,0.006,0.006,0.006,0.006,0.012,0.008,0.006,0.012,0.006
374,0,0.008,0.006,0.007,0.006,0.005,0.006,0.006,0.006,0.006,0.012,0.008,0.005,0.012,0.006
375,0,0.008,0.006,0.007,0.006,0.005,0.006,0.006,0.006,0.006,0.011,0.008,0.005,0.012,0.006
376,0,0.008,0.006,0.007,0.006,0.005,0.006,0.006,0.006,0.006,0.011,0.008,0.005,0.012,0.006
377,0,0.008,0.006,0.007,0.006,0.005,0.006,0.006,0.006,0.006,0.011,0.008,0.005,0.012,0.006
378,0,0.008,0.006,0.006,0.006,0.005,0.006,0.006,0.006,0.006,0.011,0.007,0.005,0.011,0.006
379,0,0.008,0.005,0.007,0.006,0.005,0.006,0.006,0.006,0.006,0.011,0.007,0.005,0.011,0.006
380,0,0.007,0.005,0.006,0.006,0.004,0.006,0.005,0.006,0.005,0.011,0.007,0.005,0.011,0.005
381,0,0.007,0.005,0.006,0.006,0.005,0.006,0.005,0.006,0.005,0.01,0.007,0.005,0.011,0.005
382,0,0.007,0.005,0.006,0.006,0.005,0.006,0.005,0.006,0.005,0.01,0.007,0.005,0.011,0.005
383,0,0.007,0.005,0.006,0.005,0.004,0.005,0.005,0.005,0.005,0.01,0.007,0.005,0.011,0.005
384,0,0.007,0.005,0.006,0.006,0.004,0.005,0.005,0.005,0.005,0.01,0.007,0.005,0.011,0.005
385,0,0.007,0.005,0.006,0.005,0.004,0.005,0.005,0.005,0.005,0.01,0.007,0.004,0.011,0.005
386,0,0.007,0.005,0.006,0.005,0.004,0.005,0.005,0.005,0.005,0.01,0.007,0.005,0.011,0.005
387,0,0.006,0.005,0.005,0.005,0.004,0.005,0.005,0.005,0.005,0.009,0.006,0.004,0.011,0.005
388,0,0.007,0.005,0.006,0.005,0.004,0.005,0.005,0.005,0.005,0.009,0.006,0.004,0.011,0.005
389,0,0.006,0.005,0.005,0.005,0.004,0.005,0.005,0.005,0.005,0.009,0.006,0.004,0.01,0.005
390,0,0.006,0.005,0.005,0.005,0.004,0.005,0.005,0.005,0.004,0.009,0.006,0.004,0.01,0.004
391,0,0.006,0.005,0.005,0.005,0.004,0.005,0.004,0.005,0.004,0.009,0.006,0.004,0.01,0.004
392,0,0.006,0.005,0.005,0.005,0.004,0.005,0.004,0.005,0.004,0.009,0.006,0.004,0.01,0.004
393,0,0.006,0.004,0.005,0.005,0.004,0.004,0.004,0.005,0.004,0.009,0.006,0.004,0.01,0.004
394,0,0.006,0.005,0.005,0.005,0.004,0.005,0.004,0.004,0.004,0.008,0.006,0.004,0.01,0.004
395,0,0.006,0.004,0.005,0.005,0.004,0.004,0.004,0.004,0.004,0.008,0.006,0.004,0.01,0.004
396,0,0.006,0.004,0.005,0.005,0.003,0.004,0.004,0.004,0.004,0.008,0.006,0.004,0.01,0.004
397,0,0.006,0.004,0.005,0.004,0.003,0.004,0.004,0.004,0.004,0.008,0.006,0.004,0.01,0.004
398,0,0.006,0.004,0.005,0.004,0.003,0.004,0.004,0.004,0.004,0.008,0.006,0.004,0.01,0.004
399,0,0.006,0.004,0.005,0.004,0.003,0.004,0.004,0.004,0.004,0.008,0.006,0.004,0.01,0.004
400,0,0.005,0.004,0.005,0.004,0.003,0.004,0.004,0.004,0.004,0.008,0.005,0.003,0.01,0.004
401,0,0.005,0.004,0.005,0.004,0.003,0.004,0.004,0.004,0.004,0.008,0.005,0.003,0.01,0.004
402,0,0.005,0.004,0.005,0.004,0.003,0.004,0.004,0.004,0.004,0.007,0.005,0.003,0.01,0.004
403,0,0.005,0.004,0.005,0.004,0.003,0.004,0.004,0.004,0.004,0.007,0.005,0.003,0.009,0.003
404,0,0.005,0.004,0.004,0.004,0.003,0.004,0.004,0.004,0.004,0.007,0.005,0.003,0.009,0.003
405,0,0.005,0.004,0.004,0.004,0.003,0.004,0.004,0.004,0.004,0.007,0.005,0.003,0.009,0.003
406,0,0.005,0.004,0.004,0.004,0.003,0.004,0.004,0.004,0.004,0.007,0.005,0.003,0.009,0.003
407,0,0.005,0.004,0.004,0.004,0.003,0.004,0.004,0.004,0.003,0.007,0.005,0.003,0.009,0.003
408,0,0.005,0.004,0.004,0.004,0.003,0.004,0.003,0.003,0.003,0.007,0.005,0.003,0.009,0.003
409,0,0.005,0.004,0.004,0.004,0.003,0.003,0.003,0.003,0.003,0.007,0.005,0.003,0.009,0.003
410,0,0.005,0.004,0.004,0.004,0.003,0.003,0.003,0.003,0.003,0.007,0.005,0.003,0.009,0.003
411,0,0.005,0.004,0.004,0.004,0.003,0.003,0.003,0.003,0.003,0.007,0.005,0.003,0.009,0.003
412,0,0.005,0.004,0.004,0.004,0.003,0.003,0.003,0.003,0.003,0.007,0.005,0.003,0.009,0.003
413,0,0.005,0.004,0.004,0.004,0.003,0.003,0.003,0.003,0.003,0.006,0.005,0.003,0.009,0.003
414,0,0.005,0.003,0.004,0.004,0.003,0.003,0.003,0.003,0.003,0.006,0.005,0.003,0.009,0.003
415,0,0.005,0.004,0.004,0.004,0.003,0.003,0.003,0.003,0.003,0.006,0.005,0.003,0.009,0.003
416,0,0.004,0.003,0.004,0.004,0.003,0.003,0.003,0.003,0.003,0.006,0.005,0.003,0.009,0.003
417,0,0.004,0.003,0.004,0.003,0.003,0.003,0.003,0.003,0.003,0.006,0.004,0.003,0.009,0.003
418,0,0.004,0.003,0.004,0.004,0.003,0.003,0.003,0.003,0.003,0.006,0.004,0.003,0.009,0.003
419,0,0.004,0.003,0.004,0.003,0.003,0.003,0.003,0.003,0.003,0.006,0.004,0.003,0.009,0.003
420,0,0.004,0.003,0.004,0.003,0.003,0.003,0.003,0.003,0.003,0.006,0.004,0.003,0.009,0.003
421,0,0.004,0.003,0.003,0.003,0.002,0.003,0.003,0.003,0.003,0.006,0.004,0.003,0.009,0.003
422,0,0.004,0.003,0.003,0.003,0.003,0.003,0.003,0.003,0.003,0.006,0.004,0.003,0.009,0.003
423,0,0.004,0.003,0.003,0.003,0.003,0.003,0.003,0.003,0.003,0.006,0.004,0.003,0.009,0.003
424,0,0.004,0.003,0.003,0.003,0.002,0.003,0.003,0.003,0.003,0.006,0.004,0.002,0.009,0.002
425,0,0.004,0.003,0.003,0.003,0.002,0.003,0.003,0.003,0.003,0.006,0.004,0.002,0.009,0.003
426,0,0.004,0.003,0.003,0.003,0.002,0.003,0.002,0.003,0.003,0.005,0.004,0.002,0.008,0.002
427,0,0.004,0.003,0.003,0.003,0.002,0.003,0.003,0.003,0.003,0.005,0.004,0.002,0.008,0.002
428,0,0.004,0.003,0.003,0.003,0.002,0.003,0.002,0.003,0.003,0.005,0.004,0.002,0.008,0.002
429,0,0.004,0.003,0.003,0.003,0.002,0.003,0.002,0.002,0.002,0.005,0.004,0.002,0.008,0.002
430,0,0.004,0.003,0.003,0.003,0.002,0.003,0.002,0.002,0.002,0.005,0.004,0.002,0.008,0.002
431,0,0.004,0.003,0.003,0.003,0.002,0.003,0.002,0.002,0.002,0.005,0.004,0.002,0.008,0.002
432,0,0.004,0.003,0.003,0.003,0.002,0.003,0.002,0.002,0.002,0.005,0.004,0.002,0.008,0.002
433,0,0.004,0.003,0.003,0.003,0.002,0.003,0.002,0.002,0.002,0.005,0.004,0.002,0.008,0.002
434,0,0.004,0.003,0.003,0.003,0.002,0.002,0.002,0.002,0.002,0.005,0.004,0.002,0.008,0.002
435,0,0.004,0.003,0.003,0.003,0.002,0.002,0.002,0.002,0.002,0.005,0.004,0.002,0.008,0.002
436,0,0.003,0.003,0.003,0.003,0.002,0.002,0.002,0.002,0.002,0.005,0.004,0.002,0.008,0.002
437,0,0.003,0.003,0.003,0.003,0.002,0.002,0.002,0.002,0.002,0.005,0.004,0.002,0.008,0.002
438,0,0.003,0.003,0.003,0.003,0.002,0.002,0.002,0.002,0.002,0.005,0.004,0.002,0.008,0.002
439,0,0.003,0.003,0.003,0.003,0.002,0.002,0.002,0.002,0.002,0.005,0.004,0.002,0.008,0.002
440,0,0.003,0.003,0.003,0.003,0.002,0.002,0.002,0.002,0.002,0.004,0.003,0.002,0.008,0.002
441,-0.001,0.003,0.002,0.003,0.002,0.002,0.002,0.002,0.002,0.002,0.004,0.003,0.002,0.008,0.002
442,0,0.003,0.003,0.003,0.002,0.002,0.002,0.002,0.002,0.002,0.004,0.003,0.002,0.008,0.002
443,0,0.003,0.003,0.003,0.002,0.002,0.002,0.002,0.002,0.002,0.004,0.003,0.002,0.008,0.002
444,0,0.003,0.003,0.003,0.003,0.002,0.002,0.002,0.002,0.002,0.004,0.003,0.002,0.008,0.002
445,0,0.003,0.003,0.003,0.002,0.002,0.002,0.002,0.002,0.002,0.004,0.003,0.002,0.007,0.002
446,0,0.003,0.002,0.003,0.002,0.002,0.002,0.002,0.002,0.002,0.004,0.003,0.002,0.007,0.002
447,0,0.003,0.002,0.002,0.002,0.002,0.002,0.002,0.002,0.002,0.004,0.003,0.002,0.007,0.001
448,0,0.003,0.002,0.002,0.002,0.002,0.002,0.001,0.002,0.002,0.004,0.003,0.002,0.007,0.001
449,0,0.003,0.002,0.002,0.002,0.002,0.002,0.002,0.002,0.002,0.004,0.003,0.002,0.007,0.002
450,0,0.003,0.002,0.002,0.002,0.002,0.002,0.002,0.002,0.002,0.004,0.003,0.002,0.007,0.002
451,0,0.003,0.002,0.002,0.002,0.002,0.002,0.002,0.002,0.002,0.004,0.003,0.002,0.007,0.002
452,0,0.003,0.002,0.002,0.002,0.002,0.002,0.002,0.002,0.002,0.004,0.003,0.002,0.007,0.001
453,0,0.003,0.002,0.002,0.002,0.002,0.002,0.001,0.002,0.002,0.004,0.003,0.002,0.007,0.001
454,0,0.003,0.002,0.002,0.002,0.002,0.002,0.001,0.002,0.002,0.004,0.003,0.002,0.007,0.001
455,0,0.003,0.002,0.002,0.002,0.002,0.002,0.002,0.002,0.002,0.004,0.003,0.002,0.007,0.001
456,0,0.003,0.002,0.002,0.002,0.002,0.002,0.001,0.002,0.002,0.004,0.003,0.002,0.007,0.001
457,0,0.003,0.002,0.002,0.002,0.002,0.002,0.001,0.002,0.002,0.004,0.003,0.002,0.007,0.001
458,0,0.003,0.002,0.002,0.002,0.002,0.002,0.001,0.002,0.002,0.004,0.003,0.002,0.007,0.001
459,0,0.003,0.002,0.002,0.002,0.002,0.002,0.001,0.002,0.002,0.004,0.003,0.001,0.007,0.001
460,0,0.003,0.002,0.002,0.002,0.002,0.002,0.001,0.001,0.002,0.003,0.003,0.001,0.007,0.001
461,0,0.003,0.002,0.002,0.002,0.001,0.002,0.001,0.001,0.002,0.003,0.003,0.001,0.007,0.001
462,0,0.003,0.002,0.002,0.002,0.002,0.002,0.001,0.002,0.002,0.004,0.003,0.001,0.007,0.001
463,0,0.003,0.002,0.002,0.002,0.002,0.002,0.001,0.002,0.002,0.003,0.003,0.001,0.007,0.001
464,0,0.003,0.002,0.002,0.002,0.002,0.002,0.001,0.001,0.002,0.004,0.003,0.002,0.007,0.001
465,0,0.003,0.002,0.002,0.002,0.002,0.002,0.001,0.001,0.002,0.003,0.003,0.001,0.007,0.001
466,0,0.002,0.002,0.002,0.002,0.001,0.002,0.001,0.001,0.002,0.003,0.003,0.001,0.007,0.001
467,0,0.003,0.002,0.002,0.002,0.002,0.002,0.001,0.001,0.002,0.003,0.003,0.001,0.007,0.001
468,0,0.002,0.002,0.002,0.002,0.001,0.002,0.001,0.001,0.002,0.003,0.003,0.001,0.007,0.001
469,0,0.002,0.002,0.002,0.002,0.001,0.002,0.001,0.001,0.002,0.003,0.003,0.001,0.007,0.001
470,0,0.002,0.002,0.002,0.002,0.002,0.002,0.001,0.001,0.002,0.003,0.003,0.001,0.007,0.001
471,0,0.002,0.002,0.002,0.002,0.001,0.002,0.001,0.001,0.002,0.003,0.003,0.001,0.007,0.001
472,0,0.002,0.002,0.002,0.002,0.001,0.002,0.001,0.001,0.002,0.003,0.003,0.001,0.007,0.001
473,0,0.002,0.002,0.002,0.002,0.001,0.002,0.001,0.001,0.002,0.003,0.003,0.001,0.007,0.001
474,0,0.002,0.002,0.002,0.002,0.001,0.001,0.001,0.001,0.001,0.003,0.003,0.001,0.007,0.001
475,0,0.002,0.002,0.002,0.002,0.001,0.001,0.001,0.001,0.001,0.003,0.003,0.001,0.007,0.001
476,0,0.002,0.002,0.002,0.002,0.001,0.001,0.001,0.001,0.001,0.003,0.002,0.001,0.007,0.001
477,0,0.002,0.002,0.002,0.002,0.001,0.001,0.001,0.001,0.001,0.003,0.002,0.001,0.007,0.001
478,0,0.002,0.002,0.002,0.002,0.001,0.001,0.001,0.001,0.001,0.003,0.002,0.001,0.007,0.001
479,0,0.002,0.002,0.002,0.002,0.001,0.001,0.001,0.001,0.001,0.003,0.002,0.001,0.007,0.001
480,0,0.002,0.002,0.002,0.002,0.001,0.001,0.001,0.001,0.001,0.003,0.002,0.001,0.006,0.001
481,0,0.002,0.002,0.002,0.002,0.001,0.001,0.001,0.001,0.001,0.003,0.002,0.001,0.006,0.001
482,0,0.002,0.002,0.002,0.002,0.001,0.001,0.001,0.001,0.001,0.003,0.002,0.001,0.006,0.001
483,0,0.002,0.002,0.002,0.002,0.001,0.001,0.001,0.001,0.001,0.003,0.002,0.001,0.006,0.001
484,0,0.002,0.002,0.002,0.002,0.001,0.001,0.001,0.001,0.001,0.003,0.002,0.001,0.006,0.001
485,0,0.002,0.002,0.002,0.002,0.001,0.001,0.001,0.001,0.001,0.003,0.002,0.001,0.006,0.001
486,0,0.002,0.002,0.002,0.002,0.001,0.001,0.001,0.001,0.001,0.003,0.002,0.001,0.006,0.001
487,0,0.002,0.002,0.002,0.002,0.001,0.001,0.001,0.001,0.001,0.003,0.002,0.001,0.006,0.001
488,0,0.002,0.002,0.002,0.002,0.001,0.001,0.001,0.001,0.001,0.003,0.002,0.001,0.006,0.001
489,-0.001,0.002,0.002,0.002,0.002,0.001,0.001,0.001,0.001,0.001,0.002,0.002,0.001,0.006,0.001
490,0,0.002,0.002,0.002,0.002,0.001,0.001,0.001,0.001,0.001,0.002,0.002,0.001,0.006,0.001
491,0,0.002,0.002,0.002,0.001,0.001,0.001,0.001,0.001,0.001,0.002,0.002,0.001,0.006,0.001
492,0,0.002,0.002,0.002,0.002,0.001,0.001,0.001,0.001,0.001,0.003,0.002,0.001,0.006,0.001
493,0,0.002,0.002,0.002,0.002,0.001,0.001,0.001,0.001,0.001,0.003,0.002,0.001,0.006,0.001
494,0,0.002,0.002,0.002,0.002,0.001,0.001,0.001,0.001,0.001,0.003,0.002,0.001,0.006,0.001
495,0,0.002,0.002,0.002,0.002,0.001,0.001,0.001,0.001,0.001,0.003,0.002,0.001,0.006,0.001
496,0,0.002,0.002,0.002,0.002,0.001,0.001,0.001,0.001,0.001,0.003,0.002,0.001,0.006,0.001
497,0,0.002,0.002,0.002,0.002,0.001,0.001,0.001,0.001,0.001,0.003,0.002,0.001,0.006,0.001
498,0,0.002,0.002,0.002,0.002,0.001,0.001,0.001,0.001,0.001,0.003,0.002,0.001,0.006,0.001
499,0,0.002,0.002,0.002,0.002,0.001,0.001,0.001,0.001,0.001,0.003,0.002,0.001,0.006,0.001
500,0,0.002,0.002,0.002,0.002,0.001,0.001,0.001,0.001,0.001,0.002,0.002,0.001,0.006,0.001
501,0,0.002,0.002,0.002,0.002,0.001,0.001,0.001,0.001,0.001,0.003,0.002,0.001,0.006,0.001
502,0,0.002,0.002,0.001,0.002,0.001,0.001,0.001,0.001,0.001,0.002,0.002,0.001,0.006,0.001
503,0,0.002,0.002,0.001,0.002,0.001,0.001,0.001,0.001,0.001,0.002,0.002,0.001,0.006,0.001
504,0,0.002,0.002,0.001,0.002,0.001,0.001,0.001,0.001,0.001,0.002,0.002,0.001,0.006,0.001
505,0,0.002,0.002,0.001,0.002,0.001,0.001,0.001,0.001,0.001,0.002,0.002,0.001,0.006,0.001
506,0,0.002,0.002,0.001,0.002,0.001,0.001,0.001,0.001,0.001,0.002,0.002,0.001,0.006,0.001
507,0,0.002,0.002,0.001,0.002,0.001,0.001,0.001,0.001,0.001,0.002,0.002,0.001,0.006,0.001
508,0,0.002,0.002,0.001,0.002,0.001,0.001,0.001,0.001,0.001,0.002,0.002,0.001,0.006,0.001
509,0,0.002,0.002,0.001,0.002,0.001,0.001,0.001,0.001,0.001,0.002,0.002,0.001,0.006,0.001
510,0,0.002,0.002,0.001,0.002,0.001,0.001,0.001,0.001,0.001,0.002,0.002,0.001,0.006,0.001
511,0,0.002,0.002,0.001,0.002,0.001,0.001,0.001,0.001,0.001,0.002,0.002,0.001,0.006,0.001
512,0,0.002,0.002,0.001,0.002,0.001,0.001,0.001,0.001,0.001,0.002,0.002,0.001,0.006,0.001
513,0,0.002,0.002,0.001,0.002,0.001,0.001,0.001,0.001,0.001,0.002,0.002,0.001,0.006,0.001
514,0,0.002,0.002,0.001,0.002,0.001,0.001,0.001,0.001,0.001,0.002,0.002,0.001,0.006,0.001
515,0,0.002,0.002,0.001,0.002,0.001,0.001,0.001,0.001,0.001,0.002,0.002,0.001,0.006,0.001
516,0,0.002,0.002,0.001,0.002,0.001,0.001,0.001,0.001,0.001,0.002,0.002,0.001,0.006,0.001
517,0,0.002,0.002,0.001,0.002,0.001,0.001,0.001,0.001,0.001,0.002,0.002,0.001,0.006,0.001
518,0,0.002,0.002,0.001,0.001,0.001,0.001,0.001,0.001,0.001,0.002,0.002,0.001,0.006,0.001
519,0,0.002,0.002,0.001,0.001,0.001,0.001,0.001,0.001,0.001,0.002,0.002,0.001,0.006,0.001
520,0,0.002,0.002,0.001,0.002,0.001,0.001,0.001,0.001,0.001,0.002,0.002,0.001,0.006,0.001
521,0,0.002,0.002,0.001,0.002,0.001,0.001,0.001,0.001,0.001,0.002,0.002,0.001,0.006,0.001
522,0,0.002,0.002,0.001,0.001,0.001,0.001,0.001,0.001,0.001,0.002,0.002,0.001,0.006,0.001
523,0,0.002,0.001,0.001,0.001,0.001,0.001,0.001,0.001,0.001,0.002,0.002,0.001,0.006,0.001
524,0,0.001,0.001,0.001,0.001,0.001,0.001,0.001,0.001,0.001,0.002,0.002,0.001,0.006,0.001
525,0,0.002,0.001,0.001,0.001,0.001,0.001,0.001,0.001,0.001,0.002,0.002,0.001,0.006,0.001
526,0,0.002,0.002,0.001,0.001,0.001,0.001,0.001,0.001,0.001,0.002,0.002,0.001,0.006,0.001
527,0,0.002,0.002,0.001,0.001,0.001,0.001,0.001,0.001,0.001,0.002,0.002,0.001,0.006,0.001
528,0,0.002,0.002,0.001,0.001,0.001,0.001,0.001,0.001,0.001,0.002,0.002,0.001,0.006,0.001
529,0,0.001,0.002,0.001,0.001,0.001,0.001,0,0.001,0.001,0.002,0.002,0.001,0.005,0.001
530,0,0.001,0.001,0.001,0.001,0.001,0.001,0,0.001,0.001,0.002,0.002,0.001,0.005,0.001
531,0,0.001,0.001,0.001,0.001,0.001,0.001,0,0.001,0.001,0.002,0.002,0.001,0.005,0
532,0,0.001,0.001,0.001,0.001,0.001,0.001,0,0.001,0.001,0.002,0.002,0.001,0.005,0
533,0,0.001,0.001,0.001,0.001,0.001,0.001,0,0.001,0.001,0.002,0.002,0.001,0.005,0.001
534,0,0.001,0.001,0.001,0.001,0.001,0.001,0,0.001,0.001,0.002,0.002,0.001,0.005,0.001
535,0,0.002,0.002,0.001,0.002,0.001,0.001,0.001,0.001,0.001,0.002,0.002,0.001,0.006,0.001
536,0.001,0.003,0.003,0.002,0.002,0.002,0.002,0.001,0.002,0.002,0.003,0.003,0.002,0.006,0.002
537,0,0.002,0.002,0.002,0.001,0.001,0.001,0.001,0.001,0.001,0.002,0.002,0.001,0.006,0.001
538,0,0.002,0.002,0.001,0.001,0.001,0.001,0,0.001,0.001,0.002,0.002,0.001,0.005,0.001
539,0,0.001,0.001,0.001,0.001,0.001,0.001,0,0.001,0.001,0.002,0.002,0.001,0.005,0
540,0,0.001,0.001,0.001,0.001,0.001,0.001,0,0,0.001,0.002,0.002,0.001,0.005,0
541,0,0.001,0.001,0.001,0.001,0.001,0.001,0,0.001,0.001,0.002,0.002,0.001,0.005,0
542,0,0.002,0.002,0.001,0.001,0.001,0.001,0,0.001,0.001,0.002,0.002,0.001,0.005,0
543,0,0.002,0.001,0.001,0.001,0.001,0.001,0,0,0.001,0.002,0.002,0.001,0.005,0
544,0,0.001,0.001,0.001,0.001,0.001,0.001,0,0,0.001,0.002,0.002,0.001,0.005,0
545,0,0.001,0.001,0.001,0.001,0.001,0.001,0,0,0.001,0.002,0.002,0.001,0.005,0
546,0,0.001,0.001,0.001,0.001,0.001,0.001,0,0,0.001,0.002,0.002,0.001,0.005,0
547,0,0.001,0.001,0.001,0.001,0.001,0.001,0,0,0.001,0.002,0.002,0.001,0.005,0
548,0,0.001,0.001,0.001,0.001,0.001,0.001,0,0,0.001,0.002,0.002,0.001,0.005,0
549,0,0.001,0.001,0.001,0.001,0.001,0.001,0,0,0.001,0.002,0.002,0.001,0.005,0
550,0,0.001,0.001,0.001,0.001,0.001,0.001,0,0,0.001,0.002,0.002,0.001,0.005,0
551,0,0.001,0.001,0.001,0.001,0.001,0.001,0,0,0.001,0.002,0.002,0.001,0.005,0
552,0,0.001,0.001,0.001,0.001,0.001,0.001,0,0.001,0.001,0.002,0.002,0.001,0.005,0
553,0,0.001,0.001,0.001,0.001,0.001,0.001,0,0,0.001,0.002,0.002,0.001,0.005,0
554,0,0.001,0.001,0.001,0.001,0.001,0.001,0,0,0.001,0.002,0.002,0.001,0.005,0
555,0,0.001,0.001,0.001,0.001,0.001,0.001,0,0.001,0.001,0.002,0.002,0.001,0.005,0
556,0,0.001,0.001,0.001,0.001,0.001,0.001,0,0,0.001,0.002,0.002,0.001,0.005,0
557,0,0.001,0.001,0.001,0.001,0.001,0.001,0,0,0.001,0.002,0.002,0.001,0.005,0
558,0,0.001,0.001,0.001,0.001,0.001,0.001,0,0,0.001,0.002,0.002,0.001,0.005,0
559,0,0.001,0.001,0.001,0.001,0.001,0.001,0,0,0.001,0.002,0.002,0.001,0.005,0
560,0,0.001,0.001,0.001,0.001,0.001,0.001,0,0,0.001,0.002,0.002,0.001,0.005,0
561,0,0.001,0.001,0.001,0.001,0.001,0.001,0,0,0.001,0.002,0.002,0.001,0.005,0
562,0,0.001,0.001,0.001,0.001,0.001,0.001,0,0,0.001,0.002,0.002,0.001,0.005,0
563,0,0.001,0.001,0.001,0.001,0.001,0.001,0,0,0.001,0.002,0.002,0.001,0.005,0
564,0,0.001,0.001,0.001,0.001,0.001,0.001,0,0,0.001,0.002,0.002,0.001,0.005,0
565,0,0.001,0.001,0.001,0.001,0.001,0.001,0,0,0.001,0.002,0.002,0.001,0.005,0
566,0,0.001,0.001,0.001,0.001,0.001,0.001,0,0,0.001,0.002,0.002,0.001,0.005,0
567,0,0.001,0.001,0.001,0.001,0.001,0.001,0,0,0.001,0.002,0.002,0.001,0.005,0
568,0,0.001,0.001,0.001,0.001,0.001,0.001,0,0,0.001,0.002,0.002,0.001,0.005,0
569,0,0.001,0.001,0.001,0.001,0.001,0.001,0,0,0.001,0.002,0.002,0.001,0.005,0
570,0,0.001,0.001,0.001,0.001,0.001,0.001,0,0.001,0.001,0.002,0.002,0.001,0.005,0
571,0,0.001,0.001,0.001,0.001,0.001,0.001,0,0.001,0.001,0.002,0.002,0.001,0.005,0
572,0,0.001,0.001,0.001,0.001,0.001,0.001,0,0.001,0.001,0.002,0.002,0.001,0.005,0
573,0,0.001,0.001,0.001,0.001,0.001,0.001,0,0.001,0.001,0.002,0.002,0.001,0.005,0
574,0,0.001,0.001,0.001,0.001,0.001,0.001,0,0,0.001,0.002,0.002,0.001,0.005,0
575,0,0.001,0.001,0.001,0.001,0.001,0.001,0,0,0.001,0.002,0.002,0.001,0.005,0
576,0,0.001,0.001,0.001,0.001,0.001,0.001,0,0,0.001,0.002,0.002,0.001,0.005,0
577,0,0.001,0.001,0.001,0.001,0.001,0.001,0,0.001,0.001,0.002,0.002,0.001,0.005,0
578,0,0.001,0.001,0.001,0.001,0.001,0.001,0,0.001,0.001,0.002,0.002,0.001,0.005,0
579,0,0.001,0.001,0.001,0.001,0.001,0.001,0,0.001,0.001,0.002,0.002,0.001,0.005,0
580,0,0.001,0.001,0.001,0.001,0.001,0.001,0,0.001,0.001,0.002,0.002,0.001,0.005,0
581,0,0.001,0.001,0.001,0.001,0.001,0.001,0,0.001,0.001,0.002,0.002,0.001,0.005,0
582,0,0.001,0.001,0.001,0.001,0.001,0.001,0,0.001,0.001,0.002,0.002,0.001,0.005,0
583,0,0.001,0.001,0.001,0.001,0.001,0.001,0,0.001,0.001,0.002,0.002,0.001,0.005,0
584,0,0.001,0.001,0.001,0.001,0.001,0.001,0,0.001,0.001,0.002,0.002,0.001,0.005,0
585,0,0.001,0.001,0.001,0.001,0.001,0.001,0,0,0.001,0.002,0.002,0.001,0.005,0
586,0,0.001,0.001,0.001,0.001,0.001,0.001,0,0.001,0.001,0.002,0.002,0.001,0.005,0
587,0,0.001,0.001,0.001,0.001,0.001,0.001,0,0,0.001,0.002,0.002,0.001,0.005,0
588,0,0.001,0.001,0.001,0.001,0.001,0.001,0,0.001,0.001,0.002,0.002,0.001,0.005,0
589,0,0.001,0.001,0.001,0.001,0.001,0.001,0,0,0.001,0.002,0.002,0.001,0.005,0
590,0,0.001,0.001,0.001,0.001,0.001,0.001,0,0,0.001,0.002,0.002,0.001,0.005,0
591,0,0.001,0.001,0.001,0.001,0.001,0.001,0,0,0.001,0.002,0.002,0.001,0.005,0
592,0,0.001,0.001,0.001,0.001,0.001,0.001,0,0,0.001,0.002,0.002,0.001,0.005,0
593,0,0.001,0.001,0.001,0.001,0.001,0.001,0,0,0.001,0.002,0.002,0.001,0.005,0
594,0,0.001,0.001,0.001,0.001,0.001,0.001,0,0,0.001,0.002,0.002,0.001,0.005,0
595,0,0.001,0.001,0.001,0.001,0.001,0.001,0,0,0.001,0.002,0.002,0.001,0.005,0
596,0,0.001,0.001,0.001,0.001,0.001,0.001,0,0,0.001,0.002,0.002,0.001,0.005,0
597,0,0.001,0.001,0.001,0.001,0.001,0.001,0,0,0.001,0.002,0.002,0.001,0.005,0
598,0,0.001,0.001,0.001,0.001,0.001,0,0,0,0.001,0.001,0.001,0.001,0.004,0
599,0,0.001,0.001,0.001,0.001,0.001,0,0,0,0.001,0.001,0.001,0.001,0.004,0
600,0,0.001,0.001,0.001,0.001,0.001,0.001,0,0,0.001,0.001,0.002,0.001,0.004,0
601,0,0.001,0.001,0.001,0.001,0.001,0.001,0,0,0.001,0.001,0.002,0.001,0.004,0
602,0,0.001,0.001,0.001,0.001,0.001,0.001,0,0,0.001,0.002,0.002,0.001,0.005,0
603,0,0.001,0.001,0.001,0.001,0.001,0.001,0,0,0.001,0.002,0.002,0.001,0.005,0
604,0,0.001,0.001,0.001,0.001,0.001,0.001,0,0,0.001,0.001,0.002,0.001,0.004,0
605,0,0.001,0.001,0.001,0.001,0.001,0.001,0,0,0.001,0.001,0.001,0.001,0.004,0
606,0,0.001,0.001,0.001,0.001,0.001,0.001,0,0,0.001,0.001,0.002,0.001,0.004,0
607,0,0.001,0.001,0.001,0.001,0.001,0.001,0,0,0.001,0.001,0.001,0.001,0.004,0
608,0,0.001,0.001,0.001,0.001,0.001,0.001,0,0,0.001,0.001,0.001,0.001,0.004,0
609,0,0.001,0.001,0.001,0.001,0.001,0.001,0,0,0.001,0.001,0.001,0.001,0.004,0
610,0,0.001,0.001,0.001,0.001,0.001,0.001,0,0,0.001,0.001,0.001,0.001,0.004,0
611,0,0.001,0.001,0.001,0.001,0.001,0.001,0,0,0.001,0.001,0.001,0.001,0.004,0
612,0,0.001,0.001,0.001,0.001,0.001,0.001,0,0,0.001,0.001,0.001,0.001,0.004,0
613,0,0.001,0.001,0.001,0.001,0.001,0.001,0,0,0.001,0.001,0.001,0.001,0.004,0
614,0,0.001,0.001,0.001,0.001,0.001,0.001,0,0,0.001,0.001,0.001,0.001,0.004,0
615,0,0.001,0.001,0.001,0.001,0.001,0,0,0,0.001,0.001,0.001,0.001,0.004,0
616,0,0.001,0.001,0.001,0.001,0.001,0,0,0,0.001,0.001,0.001,0.001,0.004,0
617,0,0.001,0.001,0.001,0.001,0.001,0,0,0,0.001,0.001,0.001,0.001,0.004,0
618,0,0.001,0.001,0.001,0.001,0.001,0,0,0,0.001,0.001,0.001,0.001,0.004,0
619,0,0.001,0.001,0.001,0.001,0.001,0,0,0,0,0.001,0.001,0.001,0.004,0
620,0,0.001,0.001,0.001,0.001,0.001,0,0,0,0.001,0.001,0.001,0.001,0.004,0
621,0,0.001,0.001,0.001,0.001,0.001,0,0,0,0.001,0.001,0.001,0.001,0.004,0
622,0,0.001,0.001,0.001,0.001,0.001,0,0,0,0.001,0.001,0.001,0.001,0.004,0
623,0,0.001,0.001,0.001,0.001,0.001,0,0,0,0.001,0.001,0.001,0.001,0.004,0
624,0,0.001,0.001,0.001,0.001,0.001,0,0,0,0.001,0.001,0.001,0.001,0.004,0
625,0,0.001,0.001,0.001,0.001,0.001,0,0,0,0.001,0.001,0.001,0.001,0.004,0
626,0,0.001,0.001,0.001,0.001,0.001,0,0,0,0.001,0.001,0.001,0.001,0.004,0
627,0,0.001,0.001,0.001,0.001,0.001,0,0,0,0.001,0.001,0.001,0.001,0.004,0
628,0,0.001,0.001,0.001,0.001,0.001,0,0,0,0,0.001,0.001,0.001,0.004,0
629,0,0.001,0.001,0.001,0.001,0.001,0,0,0,0,0.001,0.001,0.001,0.004,0
630,0,0.001,0.001,0.001,0.001,0.001,0,0,0,0,0.001,0.001,0.001,0.004,0
631,0,0.001,0.001,0.001,0.001,0.001,0,0,0,0.001,0.001,0.001,0.001,0.004,0
632,0,0.001,0.001,0.001,0.001,0.001,0,0,0,0.001,0.001,0.001,0.001,0.004,0
633,0,0.001,0.001,0.001,0.001,0.001,0,0,0,0,0.001,0.001,0.001,0.004,0
634,0,0.001,0.001,0.001,0.001,0.001,0,0,0,0.001,0.001,0.001,0.001,0.004,0
635,0,0.001,0.001,0.001,0.001,0.001,0,0,0,0.001,0.001,0.001,0,0.004,0
636,0,0.001,0.001,0.001,0.001,0.001,0,0,0,0.001,0.001,0.001,0,0.004,0
637,0,0.001,0.001,0.001,0.001,0.001,0,0,0,0,0.001,0.001,0,0.004,0
638,0,0.001,0.001,0.001,0.001,0.001,0,0,0,0,0.001,0.001,0,0.004,0
639,0,0.001,0.001,0.001,0.001,0.001,0,0,0,0,0.001,0.001,0,0.004,0
640,0,0.001,0.001,0.001,0.001,0.001,0,0,0,0,0.001,0.001,0,0.004,0
641,0,0.001,0.001,0.001,0.001,0.001,0,0,0,0,0.001,0.001,0,0.004,0
642,0,0.001,0.001,0.001,0.001,0.001,0,0,0,0,0.001,0.001,0,0.004,0
643,0,0.001,0.001,0.001,0.001,0.001,0,0,0,0,0.001,0.001,0,0.004,0
644,0,0.001,0.001,0.001,0.001,0.001,0,0,0,0,0.001,0.001,0,0.004,0
645,0,0.001,0.001,0.001,0.001,0.001,0,0,0,0.001,0.001,0.001,0,0.004,0
646,0,0.001,0.001,0.001,0.001,0.001,0,0,0,0.001,0.001,0.001,0,0.004,0
647,0,0.001,0.001,0.001,0.001,0.001,0,0,0,0.001,0.001,0.001,0,0.004,0
648,0,0.001,0.001,0.001,0.001,0.001,0.001,0,0,0.001,0.001,0.001,0.001,0.004,0
649,0,0.001,0.001,0.001,0.001,0.001,0.001,0,0,0.001,0.001,0.001,0.001,0.004,0
650,0,0.001,0.001,0.001,0.001,0.001,0.001,0,0,0.001,0.001,0.001,0.001,0.004,0
651,0,0.001,0.001,0.001,0.001,0.001,0.001,0,0,0.001,0.001,0.001,0.001,0.004,0
652,0,0.001,0.001,0.001,0.001,0.001,0.001,0,0,0.001,0.001,0.001,0.001,0.004,0
653,0,0.001,0.001,0.001,0.001,0.001,0.001,0,0,0.001,0.001,0.001,0.001,0.004,0
654,0,0.001,0.001,0.001,0.001,0.001,0.001,0,0,0.001,0.001,0.001,0.001,0.004,0
655,0,0.001,0.001,0.001,0.001,0.001,0.001,0,0,0.001,0.001,0.001,0.001,0.004,0
656,0,0.001,0.001,0.001,0.001,0.001,0.001,0,0,0.001,0.001,0.001,0.001,0.004,0
657,0,0.001,0.001,0.001,0.001,0.001,0.001,0,0,0.001,0.001,0.001,0.001,0.004,0
658,0,0.001,0.001,0.001,0.001,0.001,0.001,0,0,0.001,0.001,0.001,0.001,0.004,0
659,0,0.001,0.001,0.001,0.001,0.001,0.001,0,0,0.001,0.001,0.001,0.001,0.004,0
660,0,0.001,0.001,0.001,0.001,0.001,0.001,0,0,0.001,0.001,0.001,0.001,0.004,0
661,0,0.001,0.001,0.001,0.001,0.001,0.001,0,0,0.001,0.001,0.001,0.001,0.004,0
662,0,0.001,0.001,0.001,0.001,0.001,0.001,0,0,0.001,0.001,0.001,0,0.004,0
663,0,0.001,0.001,0.001,0.001,0.001,0.001,0,0,0.001,0.001,0.001,0.001,0.004,0
664,0,0.001,0.001,0.001,0.001,0.001,0.001,0,0,0.001,0.001,0.001,0.001,0.004,0
665,0,0.001,0.001,0.001,0.001,0.001,0.001,0,0,0.001,0.001,0.001,0.001,0.004,0
666,0,0.001,0.001,0.001,0.001,0.001,0.001,0,0,0.001,0.001,0.001,0.001,0.004,0
667,0,0.001,0.001,0.001,0.001,0.001,0.001,0,0,0.001,0.001,0.001,0.001,0.004,0
668,0,0.001,0.001,0.001,0.001,0.001,0.001,0,0,0.001,0.001,0.001,0.001,0.004,0
669,0,0.001,0.001,0.001,0.001,0.001,0.001,0,0,0.001,0.001,0.001,0.001,0.004,0
670,0,0.001,0.001,0.001,0.001,0.001,0.001,0,0,0.001,0.001,0.001,0.001,0.004,0
671,0,0.001,0.001,0.001,0.001,0.001,0.001,0,0,0.001,0.001,0.001,0.001,0.004,0
672,0,0.001,0.001,0.001,0.001,0.001,0.001,0,0,0.001,0.001,0.001,0.001,0.004,0
673,0,0.001,0.001,0.001,0.001,0.001,0.001,0,0,0.001,0.001,0.001,0.001,0.004,0
674,0,0.001,0.001,0.001,0.001,0.001,0.001,0,0,0.001,0.001,0.001,0.001,0.004,0
675,0,0.001,0.001,0.001,0.001,0.001,0.001,0,0,0.001,0.001,0.001,0.001,0.004,0
676,0,0.001,0.001,0.001,0.001,0.001,0.001,0,0,0.001,0.001,0.001,0.001,0.004,0
677,0,0.001,0.001,0.001,0.001,0.001,0.001,0,0,0.001,0.001,0.001,0.001,0.004,0
678,0,0.001,0.001,0.001,0.001,0.001,0.001,0,0,0.001,0.001,0.001,0.001,0.004,0
679,0,0.001,0.001,0.001,0.001,0.001,0.001,0,0,0.001,0.001,0.001,0.001,0.004,0
680,0,0.001,0.001,0.001,0.001,0.001,0.001,0,0,0.001,0.001,0.001,0.001,0.004,0
681,0,0.001,0.001,0.001,0.001,0.001,0.001,0,0,0.001,0.001,0.001,0.001,0.004,0
682,0,0.001,0.001,0.001,0.001,0.001,0.001,0,0,0.001,0.001,0.001,0.001,0.004,0
683,0,0.001,0.001,0.001,0.001,0.001,0.001,0,0,0.001,0.001,0.001,0.001,0.004,0
684,0,0.001,0.001,0.001,0.001,0.001,0.001,0,0,0.001,0.001,0.001,0.001,0.004,0
685,0,0.001,0.001,0.001,0.001,0.001,0.001,0,0,0.001,0.001,0.001,0.001,0.004,0
686,0,0.001,0.001,0.001,0.001,0.001,0.001,0,0,0.001,0.001,0.001,0.001,0.004,0
687,0,0.001,0.001,0.001,0.001,0.001,0.001,0,0,0.001,0.001,0.001,0.001,0.004,0
688,0,0.001,0.001,0.001,0.001,0.001,0.001,0,0,0.001,0.001,0.001,0.001,0.004,0
689,0,0.001,0.001,0.001,0.001,0.001,0.001,0,0,0.001,0.001,0.001,0.001,0.004,0
690,0,0.001,0.001,0.001,0.001,0.001,0.001,0,0,0.001,0.001,0.001,0,0.004,0
691,0,0.001,0.001,0.001,0.001,0.001,0.001,0,0,0.001,0.001,0.001,0.001,0.004,0
692,0,0.001,0.001,0.001,0.001,0.001,0.001,0,0,0.001,0.001,0.001,0.001,0.004,0
693,0,0.001,0.001,0.001,0.001,0.001,0.001,0,0,0.001,0.001,0.001,0.001,0.004,0
694,0,0.001,0.001,0.001,0.001,0.001,0.001,0,0,0.001,0.001,0.001,0.001,0.004,0
695,0,0.001,0.001,0.001,0.001,0.001,0.001,0,0,0.001,0.001,0.001,0.001,0.004,0
696,0,0.001,0.001,0.001,0.001,0.001,0.001,0,0,0.001,0.001,0.001,0.001,0.004,0
697,0,0.001,0.001,0.001,0.001,0.001,0.001,0,0,0.001,0.001,0.001,0.001,0.004,0
698,0,0.001,0.001,0.001,0.001,0.001,0.001,0,0,0.001,0.001,0.001,0.001,0.004,0
699,0,0.001,0.001,0.001,0.001,0.001,0.001,0,0,0.001,0.001,0.001,0.001,0.004,0
700,0,0.001,0.001,0.001,0.001,0.001,0.001,0,0,0.001,0.001,0.001,0.001,0.004,0
701,0,0.001,0.001,0.001,0.001,0.001,0.001,0,0,0.001,0.001,0.001,0.001,0.004,0
702,0,0.001,0.001,0.001,0.001,0.001,0.001,0,0,0.001,0.001,0.001,0.001,0.004,0
703,0,0.001,0.001,0.001,0.001,0.001,0.001,0,0,0.001,0.001,0.001,0.001,0.004,0
704,0,0.001,0.001,0.001,0.001,0.001,0.001,0,0,0.001,0.001,0.001,0.001,0.003,0
705,0,0.001,0.001,0.001,0.001,0.001,0,0,0,0.001,0.001,0.001,0.001,0.004,0
706,0,0.001,0.001,0.001,0.001,0.001,0,0,0,0.001,0.001,0.001,0.001,0.004,0
707,0,0.001,0.001,0.001,0.001,0.001,0,0,0,0.001,0.001,0.001,0.001,0.003,0
708,0,0.001,0.001,0.001,0.001,0.001,0,0,0,0.001,0.001,0.001,0.001,0.003,0
709,0,0.001,0.001,0.001,0.001,0.001,0,0,0,0.001,0.001,0.001,0.001,0.003,0
710,0,0.001,0.001,0.001,0.001,0.001,0,0,0,0.001,0.001,0.001,0.001,0.003,0
711,0,0.001,0.001,0.001,0.001,0.001,0,0,0,0.001,0.001,0.001,0.001,0.003,0
712,0,0.001,0.001,0.001,0.001,0.001,0,0,0,0.001,0.001,0.001,0.001,0.003,0
713,0,0.001,0.001,0.001,0.001,0.001,0,0,0,0.001,0.001,0.001,0.001,0.003,0
714,0,0.001,0.001,0.001,0.001,0.001,0.001,0,0,0.001,0.001,0.001,0.001,0.003,0
715,0,0.001,0.001,0.001,0.001,0.001,0.001,0,0,0.001,0.001,0.001,0.001,0.003,0
716,0,0.001,0.001,0.001,0.001,0.001,0,0,0,0.001,0.001,0.001,0.001,0.003,0
717,0,0.001,0.001,0.001,0.001,0.001,0,0,0,0.001,0.001,0.001,0.001,0.003,0
718,0,0.001,0.001,0.001,0.001,0.001,0,0,0,0.001,0.001,0.001,0.001,0.003,0
719,0,0.001,0.001,0.001,0.001,0.001,0,0,0,0.001,0.001,0.001,0.001,0.003,0
720,0,0.001,0.001,0.001,0.001,0.001,0,0,0,0.001,0.001,0.001,0.001,0.003,0
721,0,0.001,0.001,0.001,0.001,0.001,0.001,0,0,0.001,0.001,0.001,0.001,0.003,0
722,0,0.001,0.001,0.001,0.001,0.001,0,0,0,0.001,0.001,0.001,0.001,0.003,0
723,0,0.001,0.001,0.001,0.001,0.001,0,0,0,0.001,0.001,0.001,0.001,0.003,0
724,0,0.001,0.001,0.001,0.001,0.001,0,0,0,0.001,0.001,0.001,0.001,0.003,0
725,0,0.001,0.001,0.001,0.001,0.001,0,0,0,0,0.001,0.001,0.001,0.003,0
726,0,0.001,0.001,0.001,0.001,0.001,0,0,0,0,0.001,0.001,0.001,0.003,0
727,0,0.001,0.001,0.001,0.001,0.001,0,0,0,0.001,0.001,0.001,0.001,0.003,0
728,0,0.001,0.001,0.001,0.001,0.001,0,0,0,0.001,0.001,0.001,0.001,0.003,0
729,0,0.001,0.001,0.001,0.001,0.001,0,0,0,0.001,0.001,0.001,0.001,0.003,0
730,0,0.001,0.001,0.001,0.001,0.001,0,0,0,0,0.001,0.001,0.001,0.003,0
731,0,0.001,0.001,0.001,0.001,0.001,0,0,0,0,0.001,0.001,0.001,0.003,0
732,0,0.001,0.001,0.001,0.001,0.001,0,0,0,0,0.001,0.001,0,0.003,0
733,0,0.001,0.001,0.001,0.001,0.001,0,0,0,0,0.001,0.001,0,0.003,0
734,0,0.001,0.001,0.001,0.001,0.001,0,0,0,0,0.001,0.001,0,0.003,0
735,0,0.001,0.001,0.001,0.001,0.001,0,0,0,0.001,0.001,0.001,0.001,0.003,0
736,0,0.001,0.001,0.001,0.001,0.001,0,0,0,0,0.001,0.001,0,0.003,0
737,0,0.001,0.001,0.001,0.001,0.001,0,0,0,0,0.001,0.001,0.001,0.003,0
738,0,0.001,0.001,0.001,0.001,0.001,0,0,0,0,0.001,0.001,0,0.003,0
739,0,0.001,0.001,0.001,0.001,0.001,0,0,0,0,0.001,0.001,0.001,0.003,0
740,0,0.001,0.001,0.001,0.001,0.001,0,0,0,0.001,0.001,0.001,0.001,0.003,0
741,0,0.001,0.001,0.001,0.001,0.001,0,0,0,0.001,0.001,0.001,0.001,0.003,0
742,0,0.001,0.001,0.001,0.001,0.001,0,0,0,0.001,0.001,0.001,0.001,0.003,0
743,0,0.001,0.001,0.001,0.001,0.001,0,0,0,0.001,0.001,0.001,0.001,0.003,0
744,0,0.001,0.001,0.001,0.001,0.001,0,0,0,0.001,0.001,0.001,0.001,0.003,0
745,0,0.001,0.001,0.001,0.001,0.001,0,0,0,0.001,0.001,0.001,0.001,0.003,0
746,0,0.001,0.001,0.001,0.001,0.001,0,0,0,0.001,0.001,0.001,0.001,0.003,0
747,0,0.001,0.001,0.001,0.001,0.001,0,0,0,0,0.001,0.001,0,0.003,0
748,0,0.001,0.001,0.001,0.001,0.001,0,0,0,0.001,0.001,0.001,0,0.003,0
749,0,0.001,0.001,0.001,0.001,0.001,0,0,0,0.001,0.001,0.001,0.001,0.003,0
750,0,0.001,0.001,0.001,0.001,0.001,0,0,0,0.001,0.001,0.001,0.001,0.003,0
751,0,0.001,0.001,0.001,0.001,0.001,0,0,0,0.001,0.001,0.001,0.001,0.003,0
752,0,0.001,0.001,0.001,0.001,0.001,0,0,0,0.001,0.001,0.001,0.001,0.003,0
753,0,0.001,0.001,0.001,0.001,0.001,0,0,0,0.001,0.001,0.001,0.001,0.003,0
754,0,0.001,0.001,0.001,0.001,0.001,0,0,0,0.001,0.001,0.001,0.001,0.003,0
755,0,0.001,0.001,0.001,0.001,0.001,0,0,0,0.001,0.001,0.001,0.001,0.003,0
756,0,0.001,0.001,0.001,0.001,0.001,0,0,0,0.001,0.001,0.001,0.001,0.003,0
757,0,0.001,0.001,0.001,0.001,0.001,0,0,0,0.001,0.001,0.001,0.001,0.003,0
758,0,0.001,0.001,0.001,0.001,0.001,0.001,0,0,0.001,0.001,0.001,0.001,0.003,0
759,0,0.001,0.001,0.001,0.001,0.001,0.001,0,0.001,0.001,0.001,0.001,0.001,0.003,0
760,0.001,0.002,0.002,0.002,0.002,0.002,0.002,0.001,0.001,0.002,0.002,0.002,0.002,0.004,0.001
761,0,0.001,0.001,0.001,0.001,0.001,0.001,0,0.001,0.001,0.001,0.001,0.001,0.003,0
762,0,0.001,0.001,0.001,0.001,0.001,0,0,0,0.001,0.001,0.001,0,0.003,0
763,0,0.001,0.001,0.001,0.001,0.001,0,0,0,0.001,0.001,0.001,0,0.003,0
764,0,0.001,0.001,0.001,0.001,0.001,0.001,0,0,0.001,0.001,0.001,0.001,0.003,0
765,0,0.001,0.001,0.001,0.001,0.001,0.001,0,0,0.001,0.001,0.001,0.001,0.003,0
766,0,0.001,0.001,0.001,0.001,0.001,0.001,0,0,0.001,0.001,0.001,0.001,0.003,0
767,0,0.001,0.001,0.001,0.001,0.001,0.001,0,0,0.001,0.001,0.001,0.001,0.003,0
768,0,0.001,0.001,0.001,0.001,0.001,0.001,0,0,0.001,0.001,0.001,0.001,0.003,0
769,0,0.001,0.001,0.001,0.001,0.001,0.001,0,0,0.001,0.001,0.001,0,0.003,0
770,0,0.001,0.001,0.001,0.001,0.001,0.001,0,0,0.001,0.001,0.001,0,0.003,0
771,0,0.001,0.001,0.001,0.001,0.001,0.001,0,0,0.001,0.001,0.001,0.001,0.003,0
772,0,0.001,0.001,0.001,0.001,0.001,0.001,0,0,0.001,0.001,0.001,0.001,0.003,0
773,0,0.001,0.001,0.001,0.001,0.001,0.001,0,0,0.001,0.001,0.001,0.001,0.003,0
774,0,0.001,0.001,0.001,0.001,0.001,0.001,0,0,0.001,0.001,0.001,0.001,0.003,0
775,0,0.001,0.001,0.001,0.001,0.001,0.001,0,0,0.001,0.001,0.001,0,0.003,0
776,0,0.001,0.001,0.001,0.001,0.001,0.001,0,0,0.001,0.001,0.001,0,0.003,0
777,0,0.001,0.001,0.001,0.001,0.001,0.001,0,0,0.001,0.001,0.001,0.001,0.003,0
778,0,0.001,0.001,0.001,0.001,0.001,0.001,0,0,0.001,0.001,0.001,0.001,0.003,0
779,0,0.001,0.001,0.001,0.001,0.001,0.001,0,0,0.001,0.001,0.001,0.001,0.003,0
780,0,0.001,0.001,0.001,0.001,0.001,0.001,0,0,0.001,0.001,0.001,0.001,0.003,0
781,0,0.001,0.001,0.001,0.001,0.001,0.001,0,0,0.001,0.001,0.001,0.001,0.003,0
782,0,0.001,0.001,0.001,0.001,0.001,0.001,0,0,0.001,0.001,0.001,0.001,0.003,0
783,0,0.001,0.001,0.001,0.001,0.001,0.001,0,0,0.001,0.001,0.001,0.001,0.003,0
784,0,0.001,0.001,0.001,0.001,0.001,0.001,0,0,0.001,0.001,0.001,0.001,0.003,0
785,0,0.001,0.001,0.001,0.001,0.001,0.001,0,0,0.001,0.001,0.001,0.001,0.003,0
786,0,0.001,0.001,0.001,0.001,0.001,0.001,0,0,0.001,0.001,0.001,0.001,0.003,0
787,0,0.001,0.001,0.001,0.001,0.001,0.001,0,0,0.001,0.001,0.001,0.001,0.003,0
788,0,0.001,0.001,0.001,0.001,0.001,0.001,0,0,0.001,0.001,0.001,0.001,0.003,0
789,0,0.001,0.001,0.001,0.001,0.001,0.001,0.001,0,0.001,0.001,0.001,0.001,0.003,0
790,0,0.001,0.001,0.001,0.001,0.001,0.001,0,0,0.001,0.001,0.001,0.001,0.003,0
791,0,0.001,0.001,0.001,0.001,0.001,0.001,0,0,0.001,0.001,0.001,0.001,0.003,0
792,0,0.001,0.001,0.001,0.001,0.001,0.001,0,0,0.001,0.001,0.001,0.001,0.003,0
793,0,0.001,0.001,0.001,0.001,0.001,0.001,0.001,0.001,0.001,0.001,0.001,0.001,0.003,0.001
794,0,0.001,0.001,0.001,0.001,0.001,0.001,0,0,0.001,0.001,0.001,0.001,0.003,0
795,0,0.001,0.001,0.001,0.001,0.001,0.001,0,0,0.001,0.001,0.001,0.001,0.003,0
796,0,0.001,0.001,0.001,0.001,0.001,0.001,0,0,0.001,0.001,0.001,0.001,0.003,0
797,0,0.001,0.001,0.001,0.001,0.001,0.001,0,0,0.001,0.001,0.001,0.001,0.003,0
798,0,0.001,0.001,0.001,0.001,0.001,0.001,0,0,0.001,0.001,0.001,0.001,0.003,0
799,0,0.001,0.001,0.001,0.001,0.001,0.001,0,0,0.001,0.001,0.001,0.001,0.003,0
800,0,0.001,0.001,0.001,0.001,0.001,0.001,0,0,0.001,0.001,0.001,0,0.003,0
801,0,0.001,0.001,0.001,0.001,0.001,0.001,0,0,0.001,0.001,0.001,0.001,0.003,0
802,0,0.001,0.001,0.001,0.001,0.001,0.001,0,0.001,0.001,0.001,0.001,0.001,0.003,0
803,0,0.001,0.001,0.001,0.001,0.001,0.001,0,0,0.001,0.001,0.001,0.001,0.003,0
804,0,0.001,0.001,0.001,0.001,0.001,0.001,0,0.001,0.001,0.001,0.001,0.001,0.003,0
805,0,0.001,0.001,0.001,0.001,0.001,0.001,0,0,0.001,0.001,0.001,0.001,0.003,0
806,0,0.001,0.001,0.001,0.001,0.001,0.001,0,0.001,0.001,0.001,0.001,0.001,0.003,0
807,0,0.001,0.001,0.001,0.001,0.001,0.001,0,0.001,0.001,0.001,0.001,0.001,0.003,0.001
808,0,0.001,0.001,0.001,0.001,0.001,0.001,0,0.001,0.001,0.001,0.001,0.001,0.003,0
809,0,0.001,0.001,0.001,0.001,0.001,0.001,0,0,0.001,0.001,0.001,0.001,0.003,0
810,0,0.001,0.001,0.001,0.001,0.001,0.001,0,0.001,0.001,0.001,0.001,0.001,0.003,0
811,0,0.001,0.001,0.001,0.001,0.001,0.001,0,0,0.001,0.001,0.001,0.001,0.003,0
812,0,0.001,0.001,0.001,0.001,0.001,0.001,0,0,0.001,0.001,0.001,0.001,0.003,0
813,0,0.001,0.001,0.001,0.001,0.001,0.001,0,0,0.001,0.001,0.001,0.001,0.003,0
814,0,0.001,0.001,0.001,0.001,0.001,0.001,0,0,0.001,0.001,0.001,0.001,0.003,0
815,0,0.001,0.001,0.001,0.001,0.001,0.001,0,0.001,0.001,0.001,0.001,0.001,0.003,0
816,0,0.001,0.001,0.001,0.001,0.001,0.001,0,0.001,0.001,0.001,0.001,0.001,0.003,0
817,0,0.001,0.001,0.001,0.001,0.001,0.001,0.001,0.001,0.001,0.001,0.001,0.001,0.003,0
818,0,0.001,0.001,0.001,0.001,0.001,0.001,0,0.001,0.001,0.001,0.001,0.001,0.003,0
819,0,0.001,0.001,0.001,0.001,0.001,0.001,0,0.001,0.001,0.001,0.001,0.001,0.003,0
820,0,0.001,0.001,0.001,0.001,0.001,0.001,0,0.001,0.001,0.001,0.001,0.001,0.003,0
821,0,0.001,0.001,0.001,0.001,0.001,0.001,0,0.001,0.001,0.001,0.001,0.001,0.003,0
822,0,0.001,0.001,0.001,0.001,0.001,0.001,0,0,0.001,0.001,0.001,0.001,0.003,0
823,0,0.001,0.001,0.001,0.001,0.001,0.001,0,0.001,0.001,0.001,0.001,0.001,0.003,0
824,0,0.001,0.001,0.001,0.001,0.001,0.001,0,0,0.001,0.001,0.001,0.001,0.003,0
825,0,0.001,0.001,0.001,0.001,0.001,0.001,0,0,0.001,0.001,0.001,0.001,0.003,0
826,0,0.001,0.001,0.001,0.001,0.001,0.001,0,0,0.001,0.001,0.001,0.001,0.003,0
827,0,0.001,0.001,0.001,0.001,0.001,0.001,0,0,0.001,0.001,0.001,0.001,0.003,0
828,0,0.001,0.001,0.001,0.001,0.001,0.001,0,0,0.001,0.001,0.001,0.001,0.003,0
829,0,0.001,0.001,0.001,0.001,0.001,0.001,0,0,0.001,0.001,0.001,0.001,0.003,0
830,0,0.001,0.001,0.001,0.001,0.001,0.001,0,0,0.001,0.001,0.001,0.001,0.003,0
831,0,0.001,0.001,0.001,0.001,0.001,0.001,0,0,0.001,0.001,0.001,0.001,0.003,0
832,0,0.001,0.001,0.001,0.001,0.001,0.001,0,0,0.001,0.001,0.001,0.001,0.003,0
833,0,0.001,0.001,0.001,0.001,0.001,0.001,0,0,0.001,0.001,0.001,0.001,0.003,0
834,0,0.001,0.001,0.001,0.001,0.001,0.001,0,0,0.001,0.001,0.001,0.001,0.003,0
835,0,0.001,0.001,0.001,0.001,0.001,0.001,0,0,0.001,0.001,0.001,0.001,0.003,0
836,0,0.001,0.001,0.001,0.001,0.001,0.001,0,0,0.001,0.001,0.001,0.001,0.003,0
837,0,0.001,0.001,0.001,0.001,0.001,0.001,0,0,0.001,0.001,0.001,0.001,0.003,0
838,0,0.001,0.001,0.001,0.001,0.001,0.001,0,0,0.001,0.001,0.001,0.001,0.003,0
839,0,0.001,0.001,0.001,0.001,0.001,0.001,0,0,0.001,0.001,0.001,0.001,0.003,0
840,0,0.001,0.001,0.001,0.001,0.001,0.001,0,0,0.001,0.001,0.001,0.001,0.003,0
841,0,0.001,0.001,0.001,0.001,0.001,0.001,0,0,0.001,0.001,0.001,0.001,0.003,0
842,0,0.001,0.001,0.001,0.001,0.001,0.001,0,0,0.001,0.001,0.001,0.001,0.003,0
843,0,0.001,0.001,0.001,0.001,0.001,0.001,0,0,0.001,0.001,0.001,0.001,0.003,0
844,0,0.001,0.001,0.001,0.001,0.001,0.001,0,0,0.001,0.001,0.001,0.001,0.003,0
845,0,0.001,0.001,0.001,0.001,0.001,0.001,0,0,0.001,0.001,0.001,0.001,0.003,0
846,0,0.001,0.001,0.001,0.001,0.001,0.001,0,0,0.001,0.001,0.001,0.001,0.003,0
847,0,0.001,0.001,0.001,0.001,0.001,0.001,0,0,0.001,0.001,0.001,0.001,0.003,0
848,0,0.001,0.001,0.001,0.001,0.001,0.001,0,0,0.001,0.001,0.001,0.001,0.003,0
849,0,0.001,0.001,0.001,0.001,0.001,0.001,0,0,0.001,0.001,0.001,0.001,0.003,0
850,0,0.001,0.001,0.001,0.001,0.001,0.001,0,0,0.001,0.001,0.001,0.001,0.003,0
