Wavelength nm.	RawData ...	RawData ...	RawData ...	RawData ...	RawData ...	RawData ...	RawData ...	RawData ...	RawData ...	RawData ...	RawData ...	RawData ...	RawData ...
190.00	-0.012	0.319	0.265	0.292	0.280	0.328	0.314	0.285	0.478	0.240	0.327	0.349	0.185
191.00	-0.014	0.297	0.250	0.273	0.263	0.312	0.292	0.266	0.446	0.225	0.297	0.318	0.173
192.00	-0.014	0.277	0.236	0.253	0.249	0.293	0.271	0.244	0.410	0.212	0.264	0.286	0.163
193.00	-0.014	0.255	0.220	0.232	0.233	0.273	0.249	0.221	0.372	0.197	0.231	0.252	0.153
194.00	-0.015	0.238	0.208	0.216	0.221	0.259	0.232	0.205	0.343	0.186	0.204	0.225	0.143
195.00	-0.014	0.222	0.196	0.201	0.209	0.244	0.215	0.188	0.314	0.175	0.177	0.198	0.136
196.00	-0.013	0.208	0.188	0.188	0.198	0.233	0.201	0.175	0.290	0.166	0.155	0.175	0.129
197.00	-0.013	0.195	0.179	0.177	0.188	0.221	0.188	0.163	0.269	0.158	0.135	0.156	0.123
198.00	-0.013	0.184	0.171	0.167	0.179	0.211	0.177	0.153	0.250	0.151	0.118	0.140	0.118
199.00	-0.012	0.174	0.164	0.158	0.171	0.202	0.167	0.144	0.234	0.145	0.104	0.126	0.113
200.00	-0.012	0.166	0.157	0.150	0.165	0.194	0.159	0.138	0.219	0.140	0.093	0.114	0.108
201.00	-0.013	0.157	0.151	0.143	0.159	0.186	0.151	0.130	0.206	0.135	0.084	0.103	0.103
202.00	-0.012	0.151	0.146	0.137	0.154	0.180	0.144	0.125	0.196	0.131	0.076	0.095	0.100
203.00	-0.012	0.145	0.142	0.132	0.149	0.174	0.139	0.120	0.187	0.127	0.070	0.089	0.097
204.00	-0.011	0.140	0.137	0.127	0.145	0.169	0.133	0.116	0.178	0.124	0.065	0.083	0.095
205.00	-0.011	0.135	0.133	0.123	0.141	0.164	0.128	0.112	0.171	0.121	0.060	0.078	0.092
206.00	-0.011	0.131	0.130	0.119	0.137	0.159	0.124	0.109	0.165	0.118	0.057	0.074	0.090
207.00	-0.011	0.127	0.127	0.116	0.135	0.155	0.120	0.106	0.159	0.116	0.054	0.071	0.088
208.00	-0.010	0.123	0.124	0.112	0.132	0.150	0.116	0.103	0.154	0.113	0.052	0.068	0.086
209.00	-0.010	0.119	0.121	0.109	0.129	0.145	0.113	0.100	0.148	0.110	0.050	0.065	0.084
210.00	-0.010	0.116	0.118	0.106	0.126	0.141	0.110	0.098	0.143	0.108	0.047	0.062	0.082
211.00	-0.010	0.112	0.115	0.104	0.123	0.137	0.107	0.096	0.139	0.106	0.045	0.059	0.080
212.00	-0.009	0.109	0.112	0.101	0.121	0.133	0.104	0.093	0.134	0.104	0.043	0.057	0.078
213.00	-0.009	0.105	0.109	0.099	0.118	0.128	0.101	0.091	0.130	0.101	0.041	0.054	0.076
214.00	-0.009	0.102	0.106	0.096	0.115	0.124	0.098	0.089	0.125	0.099	0.039	0.051	0.074
215.00	-0.009	0.098	0.104	0.094	0.113	0.120	0.096	0.087	0.121	0.097	0.037	0.048	0.072
216.00	-0.009	0.095	0.101	0.092	0.111	0.116	0.093	0.085	0.117	0.095	0.035	0.045	0.070
217.00	-0.008	0.092	0.098	0.089	0.109	0.111	0.091	0.083	0.114	0.093	0.033	0.043	0.068
218.00	-0.008	0.089	0.095	0.087	0.107	0.108	0.089	0.081	0.110	0.092	0.032	0.040	0.066
219.00	-0.008	0.086	0.093	0.085	0.105	0.104	0.087	0.079	0.107	0.090	0.030	0.038	0.064
220.00	-0.008	0.083	0.090	0.084	0.103	0.100	0.085	0.078	0.104	0.088	0.028	0.035	0.062
221.00	-0.008	0.080	0.088	0.082	0.101	0.097	0.082	0.076	0.100	0.086	0.026	0.033	0.061
222.00	-0.008	0.078	0.086	0.081	0.099	0.094	0.081	0.074	0.098	0.085	0.025	0.031	0.059
223.00	-0.008	0.076	0.084	0.079	0.097	0.091	0.079	0.073	0.095	0.083	0.024	0.029	0.058
224.00	-0.007	0.074	0.082	0.078	0.096	0.089	0.077	0.072	0.092	0.082	0.022	0.027	0.056
225.00	-0.007	0.071	0.080	0.076	0.094	0.086	0.075	0.070	0.089	0.081	0.021	0.026	0.055
226.00	-0.007	0.069	0.078	0.074	0.092	0.083	0.074	0.069	0.087	0.079	0.020	0.024	0.053
227.00	-0.007	0.067	0.076	0.073	0.091	0.081	0.072	0.068	0.084	0.078	0.019	0.023	0.052
228.00	-0.007	0.065	0.074	0.071	0.089	0.078	0.070	0.066	0.082	0.076	0.018	0.021	0.050
229.00	-0.007	0.063	0.072	0.070	0.088	0.076	0.069	0.065	0.079	0.075	0.017	0.020	0.049
230.00	-0.007	0.061	0.070	0.068	0.086	0.074	0.067	0.064	0.077	0.074	0.016	0.019	0.048
231.00	-0.007	0.060	0.069	0.067	0.084	0.072	0.066	0.063	0.075	0.073	0.016	0.018	0.047
232.00	-0.007	0.058	0.067	0.066	0.083	0.070	0.064	0.061	0.073	0.071	0.015	0.017	0.046
233.00	-0.007	0.057	0.065	0.065	0.082	0.068	0.063	0.060	0.071	0.070	0.015	0.016	0.044
234.00	-0.007	0.055	0.064	0.063	0.080	0.067	0.062	0.059	0.069	0.069	0.014	0.016	0.043
235.00	-0.007	0.054	0.063	0.062	0.079	0.065	0.061	0.058	0.068	0.068	0.014	0.015	0.042
236.00	-0.008	0.053	0.061	0.061	0.078	0.064	0.060	0.057	0.066	0.067	0.014	0.015	0.042
237.00	-0.007	0.052	0.060	0.060	0.077	0.063	0.059	0.056	0.065	0.066	0.013	0.014	0.041
238.00	-0.007	0.051	0.059	0.059	0.075	0.062	0.058	0.055	0.064	0.065	0.013	0.014	0.040
239.00	-0.007	0.050	0.059	0.059	0.074	0.061	0.057	0.055	0.063	0.064	0.013	0.014	0.039
240.00	-0.007	0.049	0.058	0.058	0.073	0.060	0.056	0.054	0.062	0.063	0.013	0.013	0.039
241.00	-0.007	0.048	0.057	0.057	0.072	0.059	0.055	0.053	0.061	0.062	0.012	0.013	0.038
242.00	-0.007	0.048	0.056	0.056	0.071	0.058	0.054	0.052	0.060	0.061	0.012	0.013	0.038
243.00	-0.007	0.047	0.055	0.055	0.070	0.058	0.054	0.052	0.059	0.061	0.012	0.013	0.037
244.00	-0.007	0.047	0.055	0.055	0.070	0.057	0.053	0.051	0.059	0.060	0.012	0.013	0.037
245.00	-0.007	0.046	0.055	0.055	0.069	0.057	0.053	0.051	0.058	0.060	0.012	0.013	0.037
246.00	-0.007	0.046	0.054	0.054	0.069	0.056	0.052	0.050	0.058	0.059	0.012	0.013	0.036
247.00	-0.007	0.045	0.053	0.053	0.068	0.055	0.052	0.050	0.057	0.058	0.012	0.012	0.036
248.00	-0.007	0.045	0.053	0.053	0.067	0.055	0.052	0.049	0.057	0.058	0.012	0.012	0.035
249.00	-0.007	0.044	0.053	0.052	0.067	0.054	0.051	0.049	0.056	0.057	0.012	0.012	0.035
250.00	-0.006	0.044	0.052	0.052	0.066	0.054	0.051	0.049	0.056	0.057	0.012	0.012	0.035
251.00	-0.006	0.044	0.052	0.052	0.066	0.054	0.051	0.048	0.055	0.056	0.012	0.012	0.034
252.00	-0.006	0.043	0.051	0.052	0.065	0.053	0.050	0.048	0.055	0.056	0.012	0.012	0.034
253.00	-0.006	0.043	0.051	0.051	0.065	0.053	0.050	0.048	0.055	0.056	0.012	0.012	0.034
254.00	-0.006	0.043	0.051	0.051	0.064	0.052	0.050	0.047	0.055	0.055	0.012	0.012	0.033
255.00	-0.006	0.042	0.050	0.050	0.064	0.052	0.049	0.047	0.054	0.055	0.012	0.012	0.033
256.00	-0.006	0.042	0.050	0.050	0.063	0.052	0.049	0.047	0.054	0.054	0.012	0.012	0.033
257.00	-0.006	0.042	0.050	0.050	0.063	0.051	0.049	0.046	0.054	0.054	0.012	0.012	0.032
258.00	-0.006	0.041	0.049	0.049	0.062	0.051	0.049	0.046	0.054	0.053	0.012	0.012	0.032
259.00	-0.006	0.041	0.049	0.049	0.062	0.051	0.048	0.046	0.053	0.053	0.012	0.012	0.032
260.00	-0.006	0.041	0.048	0.048	0.061	0.050	0.048	0.045	0.053	0.052	0.012	0.012	0.032
261.00	-0.005	0.040	0.048	0.048	0.061	0.050	0.047	0.044	0.053	0.052	0.012	0.012	0.031
262.00	-0.005	0.040	0.048	0.047	0.060	0.049	0.047	0.044	0.053	0.051	0.011	0.012	0.031
263.00	-0.005	0.040	0.047	0.047	0.059	0.049	0.047	0.044	0.052	0.051	0.012	0.012	0.030
264.00	-0.005	0.039	0.047	0.046	0.059	0.048	0.046	0.043	0.052	0.050	0.011	0.012	0.030
265.00	-0.006	0.038	0.046	0.046	0.058	0.048	0.046	0.043	0.052	0.050	0.011	0.012	0.030
266.00	-0.006	0.038	0.046	0.045	0.057	0.047	0.045	0.042	0.051	0.049	0.011	0.012	0.029
267.00	-0.006	0.038	0.046	0.045	0.057	0.047	0.045	0.041	0.051	0.049	0.011	0.011	0.029
268.00	-0.005	0.037	0.046	0.044	0.056	0.046	0.044	0.041	0.051	0.048	0.011	0.011	0.029
269.00	-0.005	0.037	0.045	0.044	0.056	0.046	0.044	0.040	0.050	0.048	0.011	0.011	0.028
270.00	-0.005	0.036	0.045	0.043	0.055	0.045	0.043	0.040	0.050	0.047	0.011	0.011	0.028
271.00	-0.005	0.035	0.044	0.042	0.054	0.044	0.042	0.039	0.049	0.046	0.011	0.011	0.028
272.00	-0.006	0.035	0.044	0.042	0.054	0.044	0.042	0.039	0.049	0.046	0.011	0.011	0.027
273.00	-0.005	0.034	0.043	0.041	0.053	0.043	0.041	0.038	0.049	0.045	0.011	0.011	0.027
274.00	-0.005	0.034	0.043	0.041	0.052	0.043	0.041	0.037	0.048	0.045	0.011	0.011	0.027
275.00	-0.005	0.033	0.043	0.040	0.052	0.042	0.040	0.037	0.048	0.044	0.010	0.011	0.026
276.00	-0.005	0.033	0.042	0.039	0.051	0.041	0.039	0.036	0.047	0.043	0.010	0.011	0.026
277.00	-0.005	0.032	0.042	0.038	0.050	0.041	0.039	0.036	0.047	0.043	0.010	0.011	0.025
278.00	-0.005	0.031	0.041	0.038	0.049	0.040	0.038	0.035	0.046	0.042	0.010	0.010	0.025
279.00	-0.005	0.031	0.041	0.037	0.049	0.039	0.037	0.034	0.046	0.041	0.010	0.010	0.025
280.00	-0.005	0.030	0.040	0.036	0.048	0.039	0.037	0.034	0.045	0.041	0.010	0.010	0.024
281.00	-0.005	0.030	0.040	0.036	0.047	0.038	0.036	0.033	0.045	0.040	0.010	0.010	0.024
282.00	-0.005	0.029	0.040	0.035	0.047	0.038	0.036	0.033	0.044	0.039	0.010	0.010	0.024
283.00	-0.005	0.029	0.040	0.034	0.046	0.037	0.035	0.032	0.043	0.039	0.010	0.010	0.023
284.00	-0.005	0.028	0.039	0.033	0.045	0.036	0.034	0.031	0.043	0.038	0.010	0.010	0.023
285.00	-0.005	0.028	0.039	0.033	0.045	0.036	0.033	0.031	0.042	0.038	0.010	0.010	0.023
286.00	-0.005	0.027	0.038	0.032	0.044	0.035	0.033	0.030	0.041	0.037	0.010	0.010	0.022
287.00	-0.005	0.026	0.038	0.032	0.044	0.035	0.032	0.030	0.041	0.036	0.010	0.010	0.022
288.00	-0.005	0.026	0.037	0.031	0.043	0.034	0.031	0.029	0.040	0.036	0.010	0.010	0.021
289.00	-0.005	0.025	0.037	0.030	0.042	0.033	0.031	0.028	0.039	0.035	0.010	0.010	0.021
290.00	-0.005	0.025	0.037	0.030	0.042	0.033	0.030	0.028	0.038	0.035	0.010	0.010	0.021
291.00	-0.005	0.024	0.036	0.029	0.041	0.032	0.029	0.027	0.038	0.034	0.009	0.010	0.020
292.00	-0.005	0.023	0.035	0.028	0.040	0.032	0.028	0.027	0.037	0.033	0.009	0.010	0.020
293.00	-0.005	0.023	0.035	0.028	0.039	0.031	0.028	0.026	0.036	0.033	0.009	0.010	0.020
294.00	-0.005	0.022	0.035	0.027	0.039	0.030	0.027	0.026	0.035	0.032	0.009	0.010	0.020
295.00	-0.005	0.022	0.034	0.027	0.038	0.030	0.026	0.025	0.034	0.032	0.010	0.010	0.019
296.00	-0.005	0.021	0.034	0.026	0.038	0.029	0.026	0.025	0.034	0.031	0.009	0.010	0.019
297.00	-0.005	0.021	0.034	0.026	0.037	0.029	0.025	0.024	0.033	0.031	0.009	0.010	0.019
298.00	-0.005	0.020	0.033	0.025	0.037	0.028	0.025	0.024	0.032	0.030	0.010	0.010	0.018
299.00	-0.005	0.020	0.033	0.025	0.037	0.028	0.024	0.023	0.031	0.030	0.009	0.009	0.018
300.00	-0.005	0.020	0.033	0.024	0.036	0.027	0.023	0.023	0.030	0.029	0.009	0.009	0.018
301.00	-0.004	0.019	0.032	0.024	0.035	0.027	0.023	0.022	0.030	0.029	0.009	0.009	0.018
302.00	-0.004	0.019	0.032	0.023	0.035	0.027	0.023	0.022	0.029	0.028	0.009	0.009	0.017
303.00	-0.004	0.019	0.032	0.023	0.035	0.026	0.022	0.022	0.028	0.028	0.009	0.009	0.017
304.00	-0.004	0.018	0.031	0.022	0.034	0.026	0.022	0.021	0.028	0.027	0.009	0.009	0.017
305.00	-0.004	0.018	0.031	0.022	0.033	0.026	0.021	0.021	0.027	0.027	0.009	0.009	0.017
306.00	-0.004	0.017	0.030	0.022	0.033	0.025	0.021	0.021	0.026	0.027	0.010	0.009	0.017
307.00	-0.004	0.017	0.030	0.021	0.033	0.025	0.020	0.020	0.026	0.026	0.010	0.009	0.016
308.00	-0.004	0.017	0.030	0.021	0.032	0.024	0.020	0.020	0.025	0.026	0.010	0.009	0.016
309.00	-0.004	0.017	0.029	0.021	0.032	0.024	0.019	0.020	0.025	0.025	0.009	0.009	0.016
310.00	-0.004	0.016	0.029	0.020	0.031	0.023	0.019	0.019	0.024	0.025	0.010	0.009	0.015
311.00	-0.004	0.016	0.029	0.020	0.031	0.023	0.019	0.019	0.023	0.025	0.010	0.009	0.015
312.00	-0.004	0.016	0.029	0.020	0.031	0.023	0.018	0.019	0.023	0.024	0.010	0.009	0.015
313.00	-0.004	0.016	0.028	0.019	0.030	0.023	0.018	0.019	0.022	0.024	0.010	0.009	0.015
314.00	-0.004	0.015	0.028	0.019	0.030	0.022	0.018	0.018	0.022	0.024	0.010	0.009	0.015
315.00	-0.004	0.015	0.028	0.018	0.029	0.022	0.017	0.018	0.021	0.023	0.009	0.009	0.014
316.00	-0.004	0.015	0.027	0.018	0.029	0.021	0.017	0.017	0.021	0.023	0.009	0.009	0.014
317.00	-0.004	0.015	0.027	0.018	0.029	0.021	0.016	0.017	0.021	0.022	0.009	0.009	0.014
318.00	-0.004	0.014	0.027	0.018	0.028	0.021	0.016	0.017	0.020	0.022	0.009	0.009	0.014
319.00	-0.004	0.014	0.027	0.017	0.028	0.021	0.016	0.017	0.020	0.022	0.009	0.009	0.014
320.00	-0.004	0.014	0.026	0.017	0.027	0.020	0.015	0.016	0.019	0.021	0.009	0.008	0.013
321.00	-0.004	0.014	0.026	0.017	0.027	0.020	0.015	0.016	0.019	0.021	0.009	0.008	0.013
322.00	-0.004	0.014	0.026	0.017	0.027	0.020	0.015	0.016	0.019	0.021	0.009	0.008	0.013
323.00	-0.004	0.013	0.026	0.016	0.027	0.019	0.015	0.016	0.018	0.020	0.009	0.008	0.013
324.00	-0.003	0.013	0.025	0.016	0.026	0.019	0.015	0.015	0.018	0.020	0.009	0.008	0.012
325.00	-0.003	0.013	0.025	0.016	0.026	0.019	0.014	0.015	0.018	0.020	0.009	0.009	0.013
326.00	-0.004	0.012	0.025	0.015	0.026	0.019	0.014	0.015	0.017	0.019	0.009	0.008	0.012
327.00	-0.004	0.012	0.025	0.015	0.025	0.019	0.014	0.015	0.017	0.019	0.009	0.009	0.012
328.00	-0.004	0.012	0.024	0.015	0.025	0.018	0.014	0.014	0.017	0.019	0.009	0.008	0.012
329.00	-0.004	0.012	0.024	0.015	0.025	0.018	0.013	0.014	0.016	0.018	0.009	0.008	0.011
330.00	-0.004	0.011	0.024	0.014	0.024	0.018	0.013	0.014	0.016	0.018	0.009	0.008	0.011
331.00	-0.004	0.011	0.024	0.014	0.024	0.017	0.013	0.014	0.016	0.018	0.009	0.008	0.011
332.00	-0.004	0.011	0.024	0.014	0.024	0.017	0.012	0.014	0.016	0.018	0.009	0.008	0.011
333.00	-0.004	0.011	0.023	0.014	0.023	0.017	0.012	0.013	0.015	0.017	0.009	0.008	0.011
334.00	-0.004	0.011	0.023	0.013	0.023	0.016	0.012	0.013	0.015	0.017	0.009	0.008	0.010
335.00	-0.004	0.011	0.023	0.013	0.023	0.016	0.012	0.013	0.015	0.017	0.009	0.008	0.010
336.00	-0.003	0.010	0.023	0.013	0.023	0.016	0.011	0.013	0.015	0.017	0.009	0.008	0.010
337.00	-0.003	0.010	0.023	0.013	0.022	0.016	0.011	0.012	0.014	0.016	0.009	0.008	0.010
338.00	-0.003	0.010	0.022	0.013	0.022	0.016	0.011	0.012	0.014	0.016	0.009	0.008	0.010
339.00	-0.003	0.010	0.023	0.013	0.022	0.016	0.011	0.012	0.014	0.016	0.009	0.008	0.010
340.00	-0.002	0.011	0.023	0.013	0.023	0.017	0.012	0.013	0.015	0.017	0.010	0.009	0.011
341.00	-0.003	0.010	0.022	0.012	0.021	0.015	0.010	0.012	0.013	0.015	0.009	0.008	0.009
342.00	-0.004	0.009	0.021	0.011	0.021	0.014	0.010	0.011	0.012	0.015	0.008	0.008	0.009
343.00	-0.004	0.009	0.021	0.011	0.021	0.014	0.010	0.011	0.012	0.015	0.008	0.008	0.009
344.00	-0.004	0.009	0.021	0.011	0.020	0.014	0.010	0.011	0.012	0.015	0.008	0.008	0.009
345.00	-0.004	0.009	0.021	0.011	0.020	0.013	0.010	0.011	0.012	0.014	0.008	0.007	0.008
346.00	-0.004	0.008	0.020	0.010	0.019	0.013	0.009	0.011	0.012	0.014	0.008	0.007	0.008
347.00	-0.003	0.009	0.021	0.010	0.020	0.014	0.009	0.011	0.012	0.014	0.008	0.008	0.008
348.00	-0.003	0.009	0.020	0.010	0.019	0.013	0.009	0.011	0.011	0.014	0.008	0.008	0.008
349.00	-0.003	0.008	0.020	0.010	0.019	0.013	0.009	0.011	0.011	0.013	0.008	0.008	0.008
350.00	-0.003	0.009	0.020	0.010	0.019	0.013	0.009	0.010	0.011	0.013	0.008	0.007	0.008
351.00	-0.003	0.009	0.020	0.010	0.019	0.013	0.009	0.010	0.011	0.013	0.008	0.008	0.008
352.00	-0.003	0.009	0.020	0.010	0.018	0.013	0.009	0.010	0.011	0.013	0.008	0.008	0.008
353.00	-0.003	0.008	0.020	0.010	0.018	0.013	0.009	0.010	0.011	0.013	0.008	0.008	0.008
354.00	-0.003	0.008	0.019	0.010	0.018	0.012	0.008	0.010	0.010	0.012	0.008	0.007	0.007
355.00	-0.003	0.008	0.019	0.009	0.018	0.012	0.008	0.010	0.010	0.012	0.008	0.008	0.007
356.00	-0.003	0.008	0.019	0.009	0.018	0.012	0.008	0.010	0.010	0.012	0.008	0.007	0.007
357.00	-0.003	0.008	0.019	0.009	0.018	0.012	0.008	0.010	0.010	0.012	0.008	0.007	0.007
358.00	-0.003	0.008	0.019	0.009	0.018	0.012	0.008	0.009	0.010	0.012	0.008	0.008	0.007
359.00	-0.003	0.008	0.019	0.009	0.017	0.012	0.008	0.009	0.010	0.012	0.008	0.008	0.007
360.00	-0.003	0.008	0.019	0.009	0.017	0.012	0.008	0.010	0.010	0.012	0.008	0.008	0.007
361.00	-0.003	0.008	0.019	0.009	0.017	0.011	0.008	0.009	0.010	0.012	0.008	0.008	0.007
362.00	-0.003	0.008	0.019	0.009	0.017	0.011	0.007	0.009	0.009	0.011	0.008	0.008	0.007
363.00	-0.003	0.008	0.018	0.008	0.017	0.011	0.008	0.009	0.009	0.011	0.008	0.007	0.007
364.00	-0.003	0.008	0.019	0.008	0.017	0.011	0.008	0.009	0.009	0.011	0.008	0.007	0.007
365.00	-0.003	0.007	0.018	0.008	0.016	0.011	0.007	0.009	0.009	0.011	0.008	0.007	0.006
366.00	-0.003	0.007	0.018	0.008	0.016	0.011	0.007	0.009	0.009	0.011	0.008	0.008	0.006
367.00	-0.003	0.007	0.018	0.008	0.016	0.011	0.007	0.009	0.009	0.011	0.008	0.008	0.007
368.00	-0.002	0.007	0.018	0.008	0.016	0.011	0.007	0.009	0.009	0.010	0.008	0.008	0.006
369.00	-0.002	0.007	0.018	0.008	0.016	0.011	0.007	0.009	0.008	0.010	0.008	0.008	0.006
370.00	-0.002	0.007	0.018	0.008	0.015	0.010	0.006	0.008	0.008	0.010	0.008	0.007	0.006
371.00	-0.003	0.007	0.018	0.008	0.015	0.010	0.006	0.008	0.008	0.010	0.008	0.007	0.006
372.00	-0.002	0.007	0.018	0.008	0.015	0.010	0.006	0.008	0.008	0.010	0.008	0.008	0.006
373.00	-0.002	0.007	0.017	0.008	0.015	0.010	0.006	0.008	0.008	0.010	0.008	0.008	0.006
374.00	-0.002	0.007	0.017	0.007	0.015	0.010	0.006	0.008	0.008	0.010	0.008	0.007	0.006
375.00	-0.002	0.007	0.017	0.007	0.015	0.010	0.006	0.008	0.008	0.010	0.008	0.008	0.006
376.00	-0.002	0.007	0.017	0.007	0.014	0.010	0.006	0.008	0.007	0.010	0.008	0.007	0.006
377.00	-0.002	0.007	0.017	0.007	0.014	0.010	0.006	0.008	0.007	0.010	0.008	0.007	0.006
378.00	-0.002	0.007	0.017	0.007	0.014	0.010	0.006	0.008	0.007	0.009	0.008	0.008	0.006
379.00	-0.002	0.007	0.017	0.007	0.014	0.010	0.006	0.008	0.007	0.009	0.008	0.008	0.006
380.00	-0.002	0.006	0.017	0.007	0.014	0.009	0.006	0.007	0.007	0.009	0.008	0.007	0.006
381.00	-0.002	0.006	0.017	0.007	0.014	0.009	0.006	0.007	0.007	0.009	0.008	0.007	0.006
382.00	-0.002	0.006	0.017	0.007	0.014	0.009	0.006	0.007	0.007	0.009	0.008	0.007	0.005
383.00	-0.002	0.006	0.017	0.007	0.014	0.009	0.006	0.007	0.007	0.009	0.007	0.007	0.005
384.00	-0.002	0.006	0.017	0.007	0.014	0.009	0.005	0.007	0.007	0.009	0.007	0.007	0.005
385.00	-0.002	0.006	0.016	0.007	0.013	0.009	0.005	0.007	0.006	0.009	0.007	0.007	0.005
386.00	-0.002	0.006	0.016	0.007	0.013	0.009	0.005	0.007	0.006	0.009	0.007	0.007	0.005
387.00	-0.002	0.006	0.016	0.006	0.013	0.009	0.005	0.007	0.006	0.008	0.007	0.007	0.005
388.00	-0.002	0.006	0.016	0.006	0.013	0.009	0.005	0.007	0.006	0.008	0.007	0.007	0.005
389.00	-0.002	0.006	0.016	0.006	0.013	0.009	0.005	0.007	0.006	0.008	0.007	0.007	0.005
390.00	-0.002	0.006	0.016	0.006	0.013	0.008	0.005	0.007	0.006	0.008	0.007	0.007	0.005
391.00	-0.002	0.006	0.016	0.006	0.012	0.008	0.005	0.006	0.006	0.008	0.007	0.007	0.005
392.00	-0.002	0.006	0.016	0.006	0.012	0.008	0.005	0.006	0.006	0.008	0.007	0.007	0.005
393.00	-0.002	0.005	0.015	0.006	0.012	0.008	0.005	0.006	0.006	0.008	0.007	0.007	0.005
394.00	-0.002	0.005	0.015	0.006	0.012	0.008	0.004	0.006	0.005	0.008	0.007	0.007	0.005
395.00	-0.002	0.005	0.015	0.006	0.012	0.008	0.004	0.006	0.005	0.008	0.007	0.007	0.005
396.00	-0.002	0.006	0.015	0.006	0.012	0.008	0.004	0.006	0.005	0.008	0.007	0.007	0.005
397.00	-0.002	0.005	0.015	0.005	0.012	0.008	0.004	0.006	0.005	0.007	0.007	0.007	0.004
398.00	-0.002	0.005	0.015	0.005	0.012	0.008	0.004	0.006	0.005	0.007	0.007	0.007	0.004
399.00	-0.002	0.006	0.015	0.005	0.012	0.008	0.004	0.006	0.005	0.007	0.007	0.007	0.005
400.00	-0.002	0.005	0.015	0.005	0.012	0.008	0.004	0.006	0.005	0.007	0.007	0.007	0.004
401.00	-0.002	0.005	0.015	0.005	0.012	0.008	0.004	0.006	0.005	0.007	0.007	0.007	0.004
402.00	-0.002	0.005	0.015	0.005	0.011	0.008	0.004	0.006	0.005	0.007	0.006	0.007	0.004
403.00	-0.002	0.005	0.015	0.005	0.011	0.008	0.004	0.006	0.005	0.007	0.006	0.007	0.004
404.00	-0.002	0.005	0.015	0.005	0.011	0.008	0.004	0.006	0.005	0.007	0.006	0.007	0.004
405.00	-0.002	0.005	0.015	0.005	0.011	0.007	0.004	0.006	0.005	0.007	0.006	0.006	0.004
406.00	-0.001	0.005	0.015	0.005	0.011	0.007	0.004	0.006	0.005	0.007	0.006	0.006	0.004
407.00	-0.001	0.005	0.015	0.005	0.011	0.007	0.004	0.006	0.005	0.007	0.006	0.007	0.004
408.00	-0.001	0.005	0.015	0.005	0.011	0.007	0.004	0.006	0.005	0.007	0.006	0.006	0.004
409.00	-0.001	0.005	0.014	0.005	0.011	0.007	0.004	0.006	0.005	0.006	0.006	0.006	0.004
410.00	-0.001	0.005	0.014	0.005	0.011	0.007	0.004	0.005	0.005	0.006	0.006	0.006	0.004
411.00	-0.001	0.005	0.014	0.005	0.011	0.007	0.004	0.005	0.005	0.006	0.006	0.006	0.004
412.00	-0.001	0.005	0.014	0.005	0.010	0.007	0.004	0.005	0.005	0.006	0.006	0.006	0.004
413.00	-0.001	0.005	0.014	0.005	0.010	0.007	0.004	0.005	0.004	0.006	0.006	0.006	0.004
414.00	-0.001	0.005	0.014	0.005	0.010	0.007	0.004	0.005	0.004	0.006	0.006	0.006	0.004
415.00	-0.001	0.005	0.014	0.005	0.010	0.007	0.004	0.005	0.004	0.006	0.006	0.006	0.004
416.00	-0.001	0.005	0.014	0.005	0.010	0.007	0.004	0.005	0.004	0.006	0.006	0.006	0.004
417.00	-0.001	0.005	0.014	0.004	0.010	0.007	0.004	0.005	0.004	0.006	0.006	0.006	0.004
418.00	-0.001	0.005	0.014	0.004	0.010	0.007	0.004	0.005	0.004	0.006	0.006	0.006	0.003
419.00	-0.001	0.005	0.014	0.004	0.010	0.007	0.004	0.005	0.004	0.006	0.006	0.006	0.003
420.00	-0.001	0.005	0.014	0.004	0.010	0.006	0.003	0.005	0.004	0.006	0.006	0.006	0.003
421.00	-0.001	0.005	0.014	0.004	0.010	0.006	0.003	0.005	0.004	0.006	0.006	0.006	0.003
422.00	-0.001	0.005	0.014	0.004	0.010	0.006	0.003	0.005	0.004	0.006	0.006	0.006	0.003
423.00	-0.001	0.005	0.014	0.004	0.010	0.006	0.003	0.005	0.004	0.006	0.006	0.006	0.003
424.00	-0.001	0.005	0.014	0.004	0.010	0.006	0.003	0.005	0.004	0.006	0.006	0.006	0.003
425.00	-0.001	0.005	0.014	0.004	0.010	0.006	0.003	0.005	0.004	0.006	0.006	0.006	0.003
426.00	-0.001	0.005	0.014	0.004	0.009	0.006	0.003	0.005	0.004	0.006	0.006	0.006	0.003
427.00	-0.001	0.005	0.014	0.004	0.009	0.006	0.003	0.005	0.004	0.005	0.006	0.006	0.003
428.00	-0.001	0.005	0.014	0.004	0.009	0.006	0.003	0.005	0.004	0.005	0.006	0.006	0.003
429.00	-0.001	0.005	0.013	0.004	0.009	0.006	0.003	0.005	0.004	0.005	0.006	0.006	0.003
430.00	-0.001	0.005	0.013	0.004	0.009	0.006	0.003	0.005	0.004	0.005	0.006	0.006	0.003
431.00	-0.001	0.005	0.013	0.004	0.009	0.006	0.003	0.005	0.004	0.005	0.006	0.006	0.003
432.00	-0.001	0.005	0.013	0.004	0.009	0.006	0.003	0.005	0.004	0.005	0.006	0.006	0.003
433.00	-0.001	0.005	0.013	0.004	0.009	0.006	0.003	0.005	0.003	0.005	0.006	0.006	0.003
434.00	-0.001	0.005	0.013	0.004	0.009	0.006	0.003	0.004	0.003	0.005	0.006	0.006	0.003
435.00	-0.001	0.005	0.013	0.004	0.009	0.006	0.003	0.004	0.003	0.005	0.005	0.006	0.003
436.00	-0.001	0.005	0.013	0.004	0.009	0.006	0.003	0.004	0.003	0.005	0.005	0.006	0.003
437.00	-0.001	0.005	0.013	0.004	0.009	0.006	0.003	0.004	0.003	0.005	0.006	0.005	0.003
438.00	-0.001	0.005	0.013	0.004	0.009	0.006	0.003	0.004	0.003	0.005	0.005	0.006	0.003
439.00	-0.001	0.005	0.013	0.004	0.009	0.006	0.003	0.004	0.003	0.005	0.005	0.005	0.003
440.00	-0.001	0.004	0.013	0.004	0.009	0.006	0.003	0.004	0.003	0.005	0.005	0.005	0.003
441.00	-0.001	0.004	0.013	0.004	0.008	0.005	0.003	0.004	0.003	0.005	0.005	0.005	0.003
442.00	-0.001	0.004	0.013	0.004	0.009	0.006	0.003	0.004	0.003	0.005	0.005	0.005	0.003
443.00	-0.001	0.004	0.013	0.004	0.008	0.005	0.003	0.004	0.003	0.005	0.005	0.005	0.003
444.00	-0.001	0.004	0.013	0.004	0.008	0.005	0.003	0.004	0.003	0.005	0.005	0.005	0.003
445.00	-0.001	0.004	0.012	0.004	0.008	0.005	0.002	0.004	0.003	0.005	0.005	0.005	0.003
446.00	-0.001	0.004	0.012	0.004	0.008	0.005	0.002	0.004	0.003	0.005	0.005	0.005	0.003
447.00	-0.001	0.004	0.012	0.004	0.008	0.005	0.002	0.004	0.003	0.005	0.005	0.005	0.003
448.00	-0.001	0.004	0.012	0.003	0.008	0.005	0.002	0.004	0.003	0.005	0.005	0.005	0.003
449.00	-0.001	0.004	0.012	0.004	0.008	0.005	0.002	0.004	0.003	0.005	0.005	0.005	0.003
450.00	-0.001	0.004	0.012	0.003	0.008	0.005	0.002	0.004	0.003	0.005	0.005	0.005	0.003
451.00	-0.001	0.004	0.012	0.003	0.008	0.005	0.002	0.004	0.003	0.004	0.005	0.005	0.003
452.00	-0.001	0.004	0.012	0.004	0.008	0.005	0.002	0.004	0.003	0.005	0.005	0.005	0.003
453.00	-0.001	0.004	0.012	0.004	0.008	0.005	0.002	0.004	0.003	0.004	0.005	0.005	0.003
454.00	-0.001	0.004	0.012	0.004	0.008	0.005	0.002	0.004	0.003	0.004	0.005	0.005	0.003
455.00	-0.001	0.004	0.012	0.004	0.008	0.005	0.002	0.004	0.003	0.005	0.005	0.005	0.003
456.00	-0.001	0.004	0.012	0.004	0.008	0.005	0.002	0.004	0.003	0.005	0.005	0.005	0.003
457.00	-0.001	0.004	0.012	0.003	0.008	0.005	0.002	0.004	0.003	0.004	0.005	0.005	0.003
458.00	-0.001	0.004	0.012	0.003	0.008	0.005	0.002	0.004	0.003	0.004	0.005	0.005	0.003
459.00	-0.001	0.004	0.012	0.003	0.008	0.005	0.002	0.004	0.003	0.004	0.005	0.005	0.003
460.00	-0.001	0.004	0.012	0.003	0.008	0.005	0.002	0.004	0.003	0.004	0.005	0.005	0.003
461.00	-0.001	0.004	0.012	0.003	0.008	0.005	0.002	0.004	0.003	0.004	0.005	0.005	0.003
462.00	-0.001	0.004	0.012	0.003	0.008	0.005	0.002	0.004	0.003	0.004	0.005	0.005	0.003
463.00	-0.001	0.004	0.012	0.003	0.008	0.005	0.002	0.004	0.003	0.004	0.005	0.005	0.003
464.00	-0.001	0.004	0.012	0.003	0.008	0.005	0.002	0.003	0.003	0.004	0.005	0.005	0.003
465.00	-0.001	0.004	0.012	0.003	0.008	0.005	0.002	0.004	0.003	0.004	0.005	0.005	0.003
466.00	-0.001	0.004	0.012	0.003	0.007	0.005	0.002	0.004	0.002	0.004	0.005	0.005	0.003
467.00	-0.001	0.004	0.012	0.003	0.007	0.005	0.002	0.003	0.002	0.004	0.005	0.005	0.003
468.00	-0.001	0.004	0.012	0.003	0.007	0.005	0.002	0.003	0.002	0.004	0.005	0.005	0.002
469.00	-0.001	0.004	0.011	0.003	0.007	0.005	0.002	0.003	0.002	0.004	0.005	0.005	0.002
470.00	-0.001	0.004	0.012	0.003	0.007	0.005	0.002	0.003	0.002	0.004	0.004	0.005	0.002
471.00	-0.001	0.004	0.012	0.003	0.007	0.005	0.002	0.003	0.002	0.004	0.005	0.005	0.003
472.00	-0.001	0.004	0.012	0.003	0.007	0.005	0.002	0.003	0.003	0.004	0.004	0.005	0.002
473.00	-0.001	0.004	0.012	0.003	0.007	0.005	0.002	0.003	0.002	0.004	0.005	0.005	0.002
474.00	-0.001	0.004	0.011	0.003	0.007	0.005	0.002	0.003	0.002	0.004	0.004	0.005	0.002
475.00	-0.001	0.004	0.011	0.003	0.007	0.005	0.002	0.003	0.002	0.004	0.004	0.005	0.002
476.00	-0.001	0.004	0.011	0.003	0.007	0.005	0.002	0.003	0.002	0.004	0.004	0.005	0.002
477.00	-0.001	0.004	0.011	0.003	0.007	0.005	0.002	0.003	0.002	0.004	0.004	0.005	0.002
478.00	-0.001	0.004	0.011	0.003	0.007	0.005	0.002	0.003	0.002	0.004	0.004	0.005	0.002
479.00	-0.001	0.004	0.011	0.003	0.007	0.005	0.002	0.003	0.002	0.004	0.004	0.005	0.002
480.00	-0.000	0.004	0.011	0.003	0.007	0.005	0.002	0.003	0.002	0.004	0.004	0.005	0.002
481.00	-0.001	0.004	0.011	0.003	0.007	0.004	0.002	0.003	0.002	0.004	0.004	0.005	0.002
482.00	-0.000	0.004	0.011	0.003	0.007	0.005	0.002	0.003	0.002	0.004	0.004	0.005	0.002
483.00	-0.001	0.004	0.011	0.003	0.007	0.004	0.002	0.003	0.002	0.004	0.004	0.005	0.002
484.00	-0.001	0.004	0.011	0.003	0.007	0.004	0.002	0.003	0.002	0.004	0.004	0.005	0.002
485.00	-0.001	0.004	0.011	0.003	0.007	0.004	0.002	0.003	0.002	0.004	0.004	0.005	0.002
486.00	-0.000	0.004	0.011	0.003	0.007	0.004	0.002	0.003	0.002	0.004	0.004	0.005	0.002
487.00	-0.000	0.004	0.011	0.003	0.007	0.004	0.002	0.003	0.002	0.004	0.004	0.005	0.002
488.00	-0.000	0.004	0.011	0.003	0.007	0.004	0.002	0.003	0.002	0.004	0.004	0.005	0.002
489.00	-0.001	0.003	0.011	0.003	0.007	0.004	0.002	0.003	0.002	0.003	0.004	0.005	0.002
490.00	-0.001	0.003	0.011	0.003	0.007	0.004	0.002	0.003	0.002	0.003	0.004	0.005	0.002
491.00	-0.001	0.003	0.011	0.003	0.007	0.004	0.002	0.003	0.002	0.004	0.004	0.005	0.002
492.00	-0.000	0.004	0.011	0.003	0.007	0.004	0.002	0.003	0.002	0.004	0.004	0.005	0.002
493.00	-0.000	0.004	0.011	0.003	0.007	0.004	0.002	0.003	0.002	0.004	0.004	0.005	0.002
494.00	-0.000	0.004	0.011	0.003	0.007	0.004	0.002	0.003	0.002	0.004	0.004	0.005	0.002
495.00	-0.000	0.004	0.011	0.003	0.007	0.004	0.002	0.003	0.002	0.004	0.004	0.005	0.002
496.00	-0.000	0.004	0.011	0.003	0.007	0.004	0.002	0.003	0.002	0.004	0.004	0.005	0.002
497.00	-0.000	0.004	0.011	0.003	0.007	0.004	0.002	0.003	0.002	0.004	0.004	0.005	0.002
498.00	-0.000	0.004	0.011	0.003	0.007	0.004	0.002	0.003	0.002	0.004	0.004	0.005	0.002
499.00	-0.000	0.004	0.011	0.003	0.007	0.004	0.002	0.003	0.002	0.003	0.004	0.005	0.002
500.00	-0.000	0.004	0.011	0.003	0.006	0.004	0.002	0.003	0.002	0.003	0.004	0.005	0.002
501.00	-0.000	0.004	0.011	0.003	0.006	0.004	0.002	0.003	0.002	0.003	0.004	0.005	0.002
502.00	-0.000	0.004	0.011	0.003	0.006	0.004	0.002	0.003	0.002	0.003	0.004	0.005	0.002
503.00	-0.000	0.004	0.011	0.003	0.006	0.004	0.002	0.003	0.002	0.003	0.004	0.005	0.002
504.00	-0.000	0.004	0.011	0.003	0.006	0.004	0.002	0.003	0.002	0.003	0.004	0.005	0.002
505.00	-0.000	0.004	0.011	0.003	0.006	0.004	0.002	0.003	0.002	0.003	0.004	0.005	0.002
506.00	-0.000	0.004	0.011	0.003	0.006	0.004	0.002	0.003	0.002	0.003	0.004	0.005	0.002
507.00	-0.000	0.004	0.011	0.003	0.006	0.004	0.002	0.003	0.002	0.003	0.004	0.005	0.002
508.00	-0.000	0.003	0.011	0.003	0.006	0.004	0.002	0.003	0.002	0.003	0.004	0.005	0.002
509.00	-0.000	0.003	0.011	0.003	0.006	0.004	0.002	0.003	0.002	0.003	0.004	0.004	0.002
510.00	-0.000	0.003	0.010	0.003	0.006	0.004	0.002	0.003	0.002	0.003	0.004	0.004	0.002
511.00	-0.000	0.004	0.011	0.003	0.006	0.004	0.002	0.003	0.002	0.003	0.004	0.004	0.002
512.00	-0.000	0.003	0.011	0.003	0.006	0.004	0.002	0.003	0.002	0.003	0.004	0.004	0.002
513.00	-0.000	0.003	0.011	0.003	0.006	0.004	0.002	0.003	0.002	0.003	0.004	0.005	0.002
514.00	-0.000	0.003	0.010	0.002	0.006	0.004	0.002	0.003	0.002	0.003	0.004	0.004	0.002
515.00	-0.000	0.003	0.010	0.002	0.006	0.004	0.002	0.003	0.002	0.003	0.004	0.004	0.002
516.00	-0.000	0.003	0.010	0.002	0.006	0.004	0.002	0.003	0.002	0.003	0.004	0.004	0.002
517.00	-0.000	0.003	0.010	0.002	0.006	0.004	0.002	0.003	0.002	0.003	0.004	0.004	0.002
518.00	-0.000	0.003	0.010	0.002	0.006	0.004	0.002	0.003	0.002	0.003	0.004	0.004	0.002
519.00	-0.000	0.003	0.010	0.002	0.006	0.004	0.002	0.003	0.002	0.003	0.004	0.004	0.002
520.00	-0.000	0.003	0.010	0.002	0.006	0.004	0.002	0.003	0.002	0.003	0.004	0.004	0.002
521.00	-0.000	0.003	0.010	0.002	0.006	0.004	0.002	0.003	0.002	0.003	0.004	0.004	0.002
522.00	-0.000	0.003	0.010	0.002	0.006	0.004	0.002	0.003	0.002	0.003	0.004	0.004	0.002
523.00	-0.000	0.003	0.010	0.002	0.006	0.004	0.001	0.003	0.002	0.003	0.004	0.004	0.002
524.00	-0.000	0.003	0.010	0.002	0.006	0.004	0.001	0.003	0.002	0.003	0.004	0.004	0.002
525.00	-0.000	0.003	0.010	0.002	0.006	0.004	0.001	0.003	0.002	0.003	0.004	0.004	0.002
526.00	-0.000	0.003	0.010	0.002	0.006	0.004	0.002	0.003	0.002	0.003	0.004	0.004	0.002
527.00	-0.000	0.003	0.010	0.002	0.006	0.004	0.001	0.003	0.002	0.003	0.004	0.004	0.002
528.00	-0.000	0.003	0.010	0.002	0.006	0.004	0.002	0.003	0.002	0.003	0.004	0.004	0.002
529.00	-0.000	0.003	0.010	0.002	0.006	0.004	0.001	0.003	0.002	0.003	0.004	0.004	0.002
530.00	-0.000	0.003	0.010	0.002	0.006	0.004	0.001	0.003	0.002	0.003	0.004	0.004	0.002
531.00	-0.000	0.003	0.010	0.002	0.006	0.004	0.002	0.003	0.002	0.003	0.004	0.004	0.002
532.00	-0.000	0.003	0.010	0.002	0.006	0.004	0.001	0.003	0.002	0.003	0.004	0.004	0.002
533.00	-0.000	0.003	0.010	0.002	0.006	0.004	0.001	0.003	0.002	0.003	0.004	0.004	0.002
534.00	-0.000	0.003	0.010	0.002	0.006	0.004	0.001	0.003	0.002	0.003	0.004	0.004	0.002
535.00	-0.000	0.003	0.010	0.002	0.006	0.004	0.002	0.003	0.002	0.003	0.004	0.004	0.002
536.00	0.001	0.004	0.011	0.003	0.007	0.005	0.002	0.004	0.003	0.004	0.005	0.005	0.003
537.00	-0.000	0.003	0.010	0.002	0.006	0.004	0.002	0.003	0.002	0.003	0.004	0.004	0.002
538.00	-0.000	0.003	0.010	0.002	0.006	0.004	0.001	0.003	0.002	0.003	0.004	0.004	0.002
539.00	-0.000	0.003	0.010	0.002	0.006	0.004	0.001	0.003	0.002	0.003	0.003	0.004	0.002
540.00	-0.000	0.003	0.010	0.002	0.006	0.004	0.001	0.003	0.002	0.003	0.003	0.004	0.002
541.00	-0.000	0.003	0.010	0.002	0.006	0.004	0.001	0.003	0.002	0.003	0.004	0.004	0.002
542.00	-0.000	0.003	0.010	0.002	0.006	0.004	0.001	0.003	0.002	0.003	0.004	0.004	0.002
543.00	-0.000	0.003	0.010	0.002	0.006	0.004	0.001	0.003	0.002	0.003	0.003	0.004	0.002
544.00	-0.000	0.003	0.010	0.002	0.006	0.004	0.001	0.003	0.002	0.003	0.003	0.004	0.002
545.00	-0.000	0.003	0.010	0.002	0.006	0.004	0.001	0.003	0.002	0.003	0.004	0.004	0.002
546.00	-0.000	0.003	0.010	0.002	0.006	0.004	0.001	0.003	0.002	0.003	0.003	0.004	0.002
547.00	-0.000	0.003	0.010	0.002	0.005	0.004	0.001	0.003	0.002	0.003	0.003	0.004	0.002
548.00	-0.000	0.003	0.010	0.002	0.005	0.004	0.001	0.003	0.002	0.003	0.003	0.004	0.002
549.00	-0.000	0.003	0.009	0.002	0.005	0.004	0.001	0.003	0.002	0.003	0.003	0.004	0.002
550.00	-0.000	0.003	0.009	0.002	0.005	0.004	0.001	0.003	0.002	0.003	0.003	0.004	0.002
551.00	-0.000	0.003	0.009	0.002	0.005	0.004	0.001	0.003	0.002	0.003	0.003	0.004	0.002
552.00	-0.000	0.003	0.010	0.002	0.005	0.004	0.001	0.003	0.002	0.003	0.003	0.004	0.002
553.00	-0.000	0.003	0.009	0.002	0.005	0.004	0.001	0.003	0.002	0.003	0.003	0.004	0.002
554.00	-0.000	0.003	0.009	0.002	0.005	0.004	0.001	0.003	0.002	0.003	0.003	0.004	0.002
555.00	-0.000	0.003	0.009	0.002	0.005	0.004	0.001	0.003	0.002	0.003	0.003	0.004	0.002
556.00	-0.000	0.003	0.009	0.002	0.005	0.003	0.001	0.003	0.002	0.003	0.003	0.004	0.002
557.00	-0.000	0.003	0.009	0.002	0.005	0.003	0.001	0.002	0.002	0.002	0.003	0.004	0.002
558.00	-0.000	0.003	0.009	0.002	0.005	0.003	0.001	0.003	0.002	0.003	0.003	0.004	0.002
559.00	-0.000	0.003	0.009	0.002	0.005	0.003	0.001	0.002	0.002	0.003	0.003	0.004	0.002
560.00	-0.000	0.003	0.009	0.002	0.005	0.003	0.001	0.002	0.002	0.002	0.003	0.004	0.002
561.00	-0.000	0.003	0.009	0.002	0.005	0.003	0.001	0.002	0.002	0.002	0.003	0.004	0.002
562.00	-0.000	0.003	0.009	0.002	0.005	0.004	0.001	0.003	0.002	0.002	0.003	0.004	0.002
563.00	-0.000	0.003	0.009	0.002	0.005	0.003	0.001	0.002	0.002	0.002	0.003	0.004	0.002
564.00	-0.000	0.003	0.009	0.002	0.005	0.003	0.001	0.002	0.002	0.002	0.003	0.004	0.002
565.00	-0.000	0.003	0.009	0.002	0.005	0.003	0.001	0.002	0.002	0.003	0.003	0.004	0.002
566.00	-0.000	0.003	0.009	0.002	0.005	0.004	0.001	0.002	0.002	0.003	0.003	0.004	0.002
567.00	-0.000	0.003	0.009	0.002	0.005	0.003	0.001	0.002	0.002	0.002	0.003	0.004	0.002
568.00	-0.000	0.003	0.009	0.002	0.005	0.003	0.001	0.002	0.002	0.002	0.003	0.004	0.002
569.00	-0.000	0.003	0.009	0.002	0.005	0.003	0.001	0.002	0.002	0.002	0.003	0.004	0.002
570.00	-0.000	0.003	0.009	0.002	0.005	0.003	0.001	0.002	0.002	0.002	0.003	0.004	0.002
571.00	-0.000	0.003	0.009	0.002	0.005	0.003	0.001	0.002	0.002	0.002	0.003	0.004	0.002
572.00	-0.000	0.002	0.009	0.002	0.005	0.003	0.001	0.002	0.002	0.002	0.003	0.004	0.002
573.00	-0.000	0.003	0.009	0.002	0.005	0.003	0.001	0.002	0.002	0.002	0.003	0.004	0.002
574.00	-0.000	0.002	0.009	0.002	0.005	0.003	0.001	0.002	0.002	0.002	0.003	0.004	0.002
575.00	-0.000	0.002	0.009	0.002	0.005	0.003	0.001	0.002	0.002	0.002	0.003	0.004	0.002
576.00	-0.000	0.002	0.009	0.002	0.005	0.003	0.001	0.002	0.002	0.002	0.003	0.004	0.002
577.00	-0.000	0.002	0.009	0.002	0.005	0.003	0.001	0.002	0.002	0.002	0.003	0.004	0.002
578.00	-0.000	0.002	0.009	0.002	0.005	0.003	0.001	0.002	0.002	0.002	0.003	0.003	0.002
579.00	-0.000	0.003	0.009	0.002	0.005	0.003	0.001	0.002	0.002	0.002	0.003	0.003	0.002
580.00	-0.000	0.002	0.009	0.002	0.005	0.003	0.001	0.002	0.002	0.002	0.003	0.003	0.002
581.00	-0.000	0.002	0.009	0.002	0.005	0.003	0.001	0.002	0.002	0.002	0.003	0.003	0.002
582.00	-0.000	0.002	0.008	0.002	0.005	0.003	0.001	0.002	0.002	0.002	0.003	0.003	0.002
583.00	-0.000	0.002	0.009	0.002	0.005	0.003	0.001	0.002	0.002	0.002	0.003	0.003	0.002
584.00	-0.000	0.002	0.009	0.002	0.005	0.003	0.001	0.002	0.002	0.002	0.003	0.003	0.002
585.00	-0.000	0.002	0.009	0.002	0.005	0.003	0.001	0.002	0.002	0.002	0.003	0.003	0.002
586.00	-0.000	0.002	0.009	0.002	0.005	0.003	0.001	0.002	0.002	0.002	0.003	0.003	0.002
587.00	-0.000	0.002	0.009	0.002	0.005	0.003	0.001	0.002	0.002	0.002	0.003	0.003	0.002
588.00	-0.000	0.002	0.009	0.002	0.005	0.003	0.001	0.002	0.002	0.002	0.003	0.003	0.002
589.00	-0.000	0.002	0.008	0.002	0.005	0.003	0.001	0.002	0.001	0.002	0.003	0.003	0.002
590.00	-0.000	0.002	0.008	0.002	0.005	0.003	0.001	0.002	0.001	0.002	0.003	0.003	0.001
591.00	-0.000	0.002	0.008	0.002	0.005	0.003	0.001	0.002	0.001	0.002	0.003	0.003	0.001
592.00	-0.000	0.002	0.008	0.002	0.005	0.003	0.001	0.002	0.002	0.002	0.003	0.003	0.002
593.00	-0.000	0.002	0.008	0.002	0.005	0.003	0.001	0.002	0.002	0.002	0.003	0.003	0.002
594.00	-0.000	0.002	0.008	0.002	0.005	0.003	0.001	0.002	0.001	0.002	0.003	0.003	0.002
595.00	-0.000	0.002	0.008	0.002	0.005	0.003	0.001	0.002	0.002	0.002	0.003	0.003	0.002
596.00	-0.000	0.002	0.008	0.002	0.005	0.003	0.001	0.002	0.002	0.002	0.003	0.003	0.002
597.00	-0.000	0.002	0.008	0.002	0.005	0.003	0.001	0.002	0.001	0.002	0.003	0.003	0.001
598.00	-0.000	0.002	0.008	0.002	0.005	0.003	0.001	0.002	0.001	0.002	0.003	0.003	0.001
599.00	-0.000	0.002	0.008	0.002	0.005	0.003	0.001	0.002	0.001	0.002	0.003	0.003	0.001
600.00	-0.000	0.002	0.008	0.002	0.005	0.003	0.001	0.002	0.001	0.002	0.003	0.003	0.001
601.00	-0.000	0.002	0.008	0.002	0.005	0.003	0.001	0.002	0.001	0.002	0.003	0.003	0.001
602.00	-0.000	0.002	0.008	0.002	0.005	0.003	0.001	0.002	0.002	0.002	0.003	0.003	0.002
603.00	-0.000	0.002	0.008	0.002	0.005	0.003	0.001	0.002	0.002	0.002	0.003	0.003	0.002
604.00	-0.000	0.002	0.008	0.001	0.005	0.003	0.001	0.002	0.002	0.002	0.003	0.003	0.001
605.00	-0.000	0.002	0.008	0.001	0.005	0.003	0.001	0.002	0.001	0.002	0.003	0.003	0.001
606.00	-0.000	0.002	0.008	0.002	0.005	0.003	0.001	0.002	0.001	0.002	0.003	0.003	0.001
607.00	-0.000	0.002	0.008	0.001	0.005	0.003	0.001	0.002	0.001	0.002	0.003	0.003	0.001
608.00	-0.000	0.002	0.008	0.001	0.005	0.003	0.001	0.002	0.001	0.002	0.003	0.003	0.001
609.00	-0.000	0.002	0.008	0.002	0.005	0.003	0.001	0.002	0.001	0.002	0.003	0.003	0.001
610.00	-0.000	0.002	0.008	0.002	0.005	0.003	0.001	0.002	0.001	0.002	0.003	0.003	0.001
611.00	-0.000	0.002	0.008	0.002	0.005	0.003	0.001	0.002	0.001	0.002	0.003	0.003	0.001
612.00	-0.000	0.002	0.008	0.001	0.004	0.003	0.001	0.002	0.001	0.002	0.003	0.003	0.001
613.00	-0.000	0.002	0.008	0.001	0.004	0.003	0.001	0.002	0.001	0.002	0.003	0.003	0.001
614.00	-0.000	0.002	0.008	0.001	0.004	0.003	0.001	0.002	0.001	0.002	0.003	0.003	0.001
615.00	-0.000	0.002	0.008	0.001	0.004	0.003	0.001	0.002	0.001	0.002	0.003	0.003	0.001
616.00	-0.000	0.002	0.008	0.001	0.004	0.003	0.001	0.002	0.001	0.002	0.003	0.003	0.001
617.00	-0.000	0.002	0.008	0.002	0.004	0.003	0.001	0.002	0.002	0.002	0.003	0.003	0.001
618.00	-0.000	0.002	0.008	0.001	0.005	0.003	0.001	0.002	0.002	0.002	0.003	0.003	0.001
619.00	-0.000	0.002	0.008	0.001	0.005	0.003	0.001	0.002	0.002	0.002	0.003	0.003	0.001
620.00	-0.000	0.002	0.008	0.001	0.004	0.003	0.001	0.002	0.002	0.002	0.003	0.003	0.001
621.00	-0.000	0.002	0.008	0.001	0.004	0.003	0.001	0.002	0.002	0.002	0.003	0.003	0.001
622.00	-0.000	0.002	0.008	0.001	0.004	0.003	0.001	0.002	0.002	0.002	0.003	0.003	0.001
623.00	-0.000	0.002	0.008	0.001	0.004	0.003	0.001	0.002	0.001	0.002	0.003	0.003	0.001
624.00	-0.000	0.002	0.008	0.001	0.004	0.003	0.001	0.002	0.002	0.002	0.003	0.003	0.001
625.00	-0.000	0.002	0.008	0.001	0.004	0.003	0.001	0.002	0.002	0.002	0.003	0.003	0.001
626.00	-0.000	0.002	0.008	0.001	0.004	0.003	0.001	0.002	0.002	0.002	0.003	0.003	0.001
627.00	-0.000	0.002	0.008	0.001	0.004	0.003	0.001	0.002	0.001	0.002	0.003	0.003	0.001
628.00	-0.000	0.002	0.008	0.001	0.004	0.003	0.001	0.002	0.001	0.002	0.003	0.003	0.001
629.00	-0.000	0.002	0.008	0.001	0.004	0.003	0.001	0.002	0.002	0.002	0.003	0.003	0.001
630.00	-0.000	0.002	0.008	0.001	0.004	0.003	0.001	0.002	0.002	0.002	0.003	0.003	0.001
631.00	-0.000	0.002	0.008	0.001	0.004	0.003	0.001	0.002	0.001	0.002	0.003	0.003	0.001
632.00	-0.000	0.002	0.008	0.001	0.004	0.003	0.001	0.002	0.002	0.002	0.003	0.003	0.001
633.00	-0.000	0.002	0.008	0.001	0.004	0.003	0.001	0.002	0.001	0.002	0.003	0.003	0.001
634.00	-0.000	0.002	0.008	0.001	0.004	0.003	0.001	0.002	0.002	0.002	0.003	0.003	0.001
635.00	-0.000	0.002	0.008	0.001	0.004	0.003	0.001	0.002	0.002	0.002	0.003	0.003	0.001
636.00	-0.000	0.002	0.008	0.001	0.004	0.003	0.001	0.002	0.002	0.002	0.003	0.003	0.001
637.00	-0.000	0.002	0.008	0.001	0.004	0.003	0.001	0.002	0.002	0.002	0.003	0.003	0.001
638.00	-0.000	0.002	0.008	0.001	0.004	0.003	0.001	0.002	0.002	0.002	0.003	0.003	0.001
639.00	-0.000	0.002	0.008	0.001	0.004	0.003	0.001	0.002	0.001	0.002	0.003	0.003	0.001
640.00	-0.000	0.002	0.008	0.001	0.004	0.003	0.001	0.002	0.001	0.002	0.003	0.003	0.001
641.00	-0.000	0.002	0.008	0.001	0.004	0.003	0.001	0.002	0.001	0.002	0.003	0.003	0.001
642.00	-0.000	0.002	0.008	0.001	0.004	0.003	0.001	0.002	0.001	0.002	0.003	0.003	0.001
643.00	-0.000	0.002	0.008	0.001	0.004	0.003	0.001	0.002	0.001	0.002	0.003	0.003	0.001
644.00	-0.000	0.002	0.008	0.001	0.004	0.003	0.001	0.002	0.002	0.002	0.003	0.003	0.001
645.00	-0.000	0.002	0.008	0.001	0.004	0.003	0.001	0.002	0.002	0.002	0.003	0.003	0.001
646.00	-0.000	0.002	0.008	0.001	0.004	0.003	0.001	0.002	0.002	0.002	0.003	0.003	0.001
647.00	-0.000	0.002	0.008	0.001	0.004	0.003	0.001	0.002	0.002	0.002	0.003	0.003	0.001
648.00	-0.000	0.002	0.008	0.001	0.004	0.003	0.001	0.002	0.002	0.002	0.003	0.003	0.001
649.00	-0.000	0.002	0.008	0.001	0.004	0.003	0.001	0.002	0.002	0.002	0.003	0.003	0.002
650.00	-0.000	0.002	0.008	0.001	0.004	0.003	0.001	0.002	0.002	0.002	0.003	0.003	0.001
651.00	-0.000	0.002	0.008	0.001	0.004	0.003	0.001	0.002	0.002	0.002	0.003	0.003	0.002
652.00	-0.000	0.002	0.008	0.001	0.004	0.003	0.001	0.002	0.002	0.002	0.003	0.003	0.001
653.00	-0.000	0.002	0.008	0.001	0.004	0.003	0.001	0.002	0.002	0.002	0.003	0.003	0.001
654.00	-0.000	0.002	0.008	0.001	0.004	0.003	0.001	0.002	0.002	0.002	0.003	0.003	0.002
655.00	-0.000	0.002	0.008	0.001	0.004	0.003	0.001	0.002	0.002	0.002	0.003	0.003	0.002
656.00	-0.000	0.002	0.008	0.001	0.004	0.003	0.001	0.002	0.002	0.002	0.003	0.003	0.002
657.00	-0.000	0.002	0.008	0.001	0.004	0.003	0.001	0.002	0.002	0.002	0.003	0.003	0.002
658.00	-0.000	0.002	0.008	0.001	0.004	0.003	0.001	0.002	0.002	0.002	0.003	0.003	0.001
659.00	-0.000	0.002	0.008	0.001	0.004	0.003	0.001	0.002	0.002	0.002	0.003	0.003	0.001
660.00	-0.000	0.002	0.008	0.001	0.004	0.003	0.001	0.002	0.002	0.002	0.003	0.003	0.001
661.00	-0.000	0.002	0.008	0.001	0.004	0.003	0.001	0.002	0.002	0.002	0.003	0.003	0.002
662.00	-0.000	0.002	0.008	0.001	0.004	0.003	0.001	0.002	0.002	0.002	0.003	0.003	0.002
663.00	-0.000	0.002	0.008	0.001	0.004	0.003	0.001	0.002	0.002	0.002	0.003	0.003	0.002
664.00	-0.000	0.002	0.008	0.001	0.004	0.003	0.001	0.002	0.002	0.002	0.003	0.003	0.002
665.00	-0.000	0.002	0.008	0.001	0.004	0.003	0.001	0.002	0.002	0.002	0.003	0.003	0.001
666.00	-0.000	0.002	0.008	0.001	0.004	0.003	0.001	0.002	0.002	0.002	0.003	0.003	0.001
667.00	-0.000	0.002	0.008	0.001	0.004	0.003	0.001	0.002	0.002	0.002	0.003	0.003	0.002
668.00	-0.000	0.002	0.008	0.001	0.004	0.003	0.001	0.002	0.002	0.002	0.003	0.003	0.002
669.00	-0.000	0.002	0.008	0.001	0.004	0.003	0.001	0.002	0.002	0.002	0.003	0.003	0.002
670.00	-0.000	0.002	0.008	0.001	0.004	0.003	0.001	0.002	0.002	0.002	0.003	0.003	0.002
671.00	-0.000	0.002	0.008	0.001	0.004	0.003	0.001	0.002	0.002	0.002	0.003	0.003	0.001
672.00	-0.000	0.002	0.008	0.001	0.004	0.003	0.001	0.002	0.002	0.002	0.003	0.003	0.001
673.00	-0.000	0.002	0.008	0.001	0.004	0.003	0.001	0.002	0.002	0.002	0.003	0.003	0.001
674.00	-0.000	0.002	0.008	0.001	0.004	0.003	0.001	0.002	0.002	0.002	0.003	0.003	0.002
675.00	-0.000	0.002	0.008	0.001	0.004	0.003	0.001	0.002	0.002	0.002	0.003	0.003	0.002
676.00	-0.000	0.002	0.008	0.001	0.004	0.003	0.001	0.002	0.002	0.002	0.003	0.003	0.002
677.00	-0.000	0.002	0.008	0.001	0.004	0.003	0.001	0.002	0.002	0.002	0.003	0.003	0.001
678.00	-0.000	0.002	0.008	0.001	0.004	0.003	0.001	0.002	0.002	0.002	0.003	0.003	0.002
679.00	-0.000	0.002	0.008	0.001	0.004	0.003	0.001	0.002	0.002	0.002	0.003	0.003	0.002
680.00	-0.000	0.002	0.008	0.001	0.004	0.003	0.001	0.002	0.002	0.002	0.003	0.003	0.002
681.00	-0.000	0.002	0.008	0.001	0.004	0.003	0.001	0.002	0.002	0.002	0.003	0.003	0.002
682.00	-0.000	0.002	0.008	0.001	0.004	0.003	0.001	0.002	0.002	0.002	0.003	0.003	0.002
683.00	0.000	0.002	0.008	0.001	0.004	0.003	0.001	0.002	0.002	0.002	0.003	0.003	0.002
684.00	0.000	0.002	0.008	0.001	0.004	0.003	0.001	0.002	0.002	0.002	0.003	0.003	0.002
685.00	0.000	0.002	0.008	0.001	0.004	0.003	0.001	0.002	0.002	0.002	0.003	0.003	0.002
686.00	0.000	0.002	0.008	0.001	0.004	0.003	0.001	0.002	0.002	0.002	0.003	0.003	0.002
687.00	0.000	0.002	0.008	0.001	0.004	0.003	0.001	0.002	0.002	0.002	0.003	0.003	0.002
688.00	-0.000	0.002	0.008	0.001	0.004	0.003	0.001	0.002	0.002	0.002	0.003	0.003	0.002
689.00	-0.000	0.002	0.008	0.001	0.004	0.003	0.001	0.002	0.002	0.002	0.003	0.003	0.002
690.00	-0.000	0.002	0.008	0.001	0.004	0.003	0.001	0.002	0.002	0.002	0.003	0.003	0.002
691.00	-0.000	0.002	0.008	0.001	0.004	0.003	0.001	0.002	0.002	0.002	0.003	0.003	0.002
692.00	0.000	0.002	0.008	0.001	0.004	0.003	0.001	0.002	0.002	0.002	0.003	0.003	0.002
693.00	0.000	0.002	0.008	0.001	0.004	0.003	0.001	0.002	0.002	0.002	0.003	0.003	0.002
694.00	-0.000	0.002	0.008	0.001	0.004	0.003	0.001	0.002	0.002	0.002	0.003	0.003	0.002
695.00	-0.000	0.002	0.008	0.001	0.004	0.003	0.001	0.002	0.002	0.002	0.003	0.003	0.002
696.00	0.000	0.002	0.008	0.001	0.004	0.003	0.001	0.002	0.002	0.002	0.003	0.003	0.002
697.00	0.000	0.002	0.008	0.001	0.004	0.003	0.001	0.002	0.002	0.002	0.003	0.003	0.002
698.00	-0.000	0.002	0.008	0.001	0.004	0.003	0.001	0.002	0.002	0.002	0.003	0.003	0.002
699.00	-0.000	0.002	0.008	0.001	0.004	0.003	0.001	0.002	0.002	0.002	0.003	0.003	0.001
700.00	0.000	0.002	0.008	0.001	0.004	0.003	0.001	0.002	0.002	0.002	0.003	0.003	0.002
701.00	-0.000	0.002	0.008	0.001	0.004	0.003	0.001	0.002	0.002	0.002	0.003	0.003	0.002
702.00	-0.000	0.002	0.008	0.001	0.004	0.003	0.001	0.002	0.002	0.002	0.003	0.003	0.002
703.00	-0.000	0.002	0.007	0.001	0.004	0.003	0.001	0.002	0.002	0.002	0.003	0.003	0.001
704.00	-0.000	0.002	0.007	0.001	0.004	0.003	0.001	0.002	0.002	0.002	0.003	0.003	0.002
705.00	-0.000	0.002	0.007	0.001	0.004	0.003	0.001	0.002	0.002	0.002	0.003	0.003	0.002
706.00	-0.000	0.002	0.007	0.001	0.004	0.003	0.001	0.002	0.002	0.002	0.003	0.003	0.002
707.00	-0.000	0.002	0.007	0.001	0.004	0.003	0.001	0.002	0.002	0.002	0.003	0.003	0.002
708.00	0.000	0.002	0.007	0.001	0.004	0.003	0.001	0.002	0.002	0.002	0.003	0.003	0.001
709.00	0.000	0.002	0.007	0.001	0.004	0.003	0.001	0.002	0.002	0.002	0.003	0.003	0.001
710.00	0.000	0.002	0.007	0.001	0.004	0.003	0.001	0.002	0.002	0.002	0.003	0.003	0.002
711.00	0.000	0.002	0.007	0.002	0.004	0.003	0.001	0.002	0.002	0.002	0.003	0.003	0.002
712.00	0.000	0.002	0.007	0.001	0.004	0.003	0.001	0.002	0.002	0.002	0.003	0.003	0.002
713.00	-0.000	0.002	0.007	0.001	0.004	0.003	0.001	0.002	0.002	0.002	0.003	0.003	0.001
714.00	0.000	0.002	0.007	0.001	0.004	0.003	0.001	0.002	0.002	0.002	0.003	0.003	0.002
715.00	-0.000	0.002	0.007	0.002	0.004	0.003	0.001	0.002	0.002	0.002	0.003	0.003	0.001
716.00	-0.000	0.002	0.007	0.001	0.004	0.003	0.001	0.002	0.002	0.002	0.003	0.003	0.001
717.00	-0.000	0.002	0.007	0.001	0.004	0.003	0.001	0.002	0.002	0.002	0.003	0.003	0.001
718.00	0.000	0.002	0.007	0.001	0.004	0.003	0.001	0.002	0.002	0.002	0.003	0.003	0.002
719.00	0.000	0.002	0.007	0.001	0.004	0.003	0.001	0.002	0.002	0.002	0.003	0.003	0.001
720.00	0.000	0.002	0.007	0.001	0.004	0.003	0.001	0.002	0.002	0.002	0.003	0.003	0.001
721.00	0.000	0.002	0.007	0.001	0.004	0.003	0.001	0.002	0.002	0.002	0.003	0.003	0.001
722.00	-0.000	0.002	0.007	0.001	0.004	0.003	0.001	0.002	0.002	0.002	0.003	0.003	0.001
723.00	0.000	0.002	0.007	0.001	0.004	0.003	0.001	0.002	0.002	0.002	0.003	0.003	0.001
724.00	0.000	0.002	0.007	0.001	0.004	0.003	0.001	0.002	0.002	0.002	0.003	0.003	0.001
725.00	0.000	0.002	0.007	0.001	0.004	0.003	0.001	0.002	0.002	0.002	0.003	0.003	0.001
726.00	0.000	0.002	0.007	0.001	0.004	0.003	0.001	0.002	0.002	0.002	0.003	0.003	0.001
727.00	0.000	0.002	0.007	0.001	0.004	0.003	0.001	0.002	0.002	0.002	0.003	0.003	0.001
728.00	0.000	0.002	0.007	0.001	0.004	0.003	0.001	0.002	0.002	0.002	0.003	0.003	0.001
729.00	0.000	0.002	0.007	0.001	0.004	0.003	0.000	0.002	0.002	0.002	0.003	0.003	0.001
730.00	0.000	0.002	0.007	0.001	0.004	0.002	0.000	0.002	0.001	0.002	0.003	0.003	0.001
731.00	0.000	0.002	0.007	0.001	0.003	0.002	0.000	0.002	0.002	0.002	0.003	0.003	0.001
732.00	0.000	0.002	0.007	0.001	0.004	0.002	0.000	0.002	0.002	0.002	0.003	0.003	0.001
733.00	0.000	0.002	0.007	0.001	0.003	0.002	0.000	0.001	0.001	0.002	0.003	0.003	0.001
734.00	0.000	0.002	0.007	0.001	0.003	0.002	0.000	0.001	0.001	0.001	0.003	0.003	0.001
735.00	0.000	0.002	0.007	0.001	0.003	0.002	0.000	0.001	0.002	0.002	0.003	0.003	0.001
736.00	0.000	0.002	0.007	0.001	0.003	0.002	0.000	0.001	0.001	0.002	0.003	0.003	0.001
737.00	0.000	0.002	0.007	0.001	0.003	0.002	0.000	0.001	0.001	0.002	0.003	0.003	0.001
738.00	0.000	0.002	0.007	0.001	0.003	0.002	0.000	0.001	0.001	0.001	0.003	0.003	0.001
739.00	0.000	0.002	0.007	0.001	0.003	0.002	0.000	0.001	0.001	0.002	0.003	0.003	0.001
740.00	0.000	0.002	0.007	0.001	0.003	0.002	0.000	0.001	0.002	0.002	0.003	0.003	0.001
741.00	-0.000	0.002	0.007	0.001	0.003	0.002	0.000	0.001	0.001	0.002	0.003	0.003	0.001
742.00	0.000	0.002	0.007	0.001	0.003	0.002	0.000	0.001	0.001	0.002	0.003	0.003	0.001
743.00	0.000	0.002	0.007	0.001	0.003	0.002	0.000	0.001	0.001	0.002	0.003	0.003	0.001
744.00	0.000	0.002	0.007	0.001	0.003	0.002	0.000	0.001	0.001	0.002	0.003	0.003	0.001
745.00	0.000	0.002	0.007	0.001	0.003	0.002	0.000	0.001	0.001	0.002	0.003	0.003	0.001
746.00	0.000	0.002	0.007	0.001	0.003	0.002	0.000	0.001	0.001	0.002	0.003	0.003	0.001
747.00	0.000	0.002	0.006	0.001	0.003	0.002	0.000	0.001	0.001	0.002	0.003	0.003	0.001
748.00	0.000	0.002	0.006	0.001	0.003	0.002	0.000	0.001	0.001	0.002	0.003	0.003	0.001
749.00	0.000	0.002	0.006	0.001	0.003	0.002	0.000	0.001	0.001	0.002	0.003	0.003	0.001
750.00	0.000	0.002	0.006	0.001	0.003	0.002	0.000	0.001	0.001	0.002	0.003	0.003	0.001
751.00	0.000	0.002	0.006	0.001	0.003	0.002	0.000	0.001	0.001	0.002	0.003	0.003	0.001
752.00	0.000	0.002	0.006	0.001	0.003	0.002	0.000	0.001	0.002	0.002	0.003	0.003	0.001
753.00	0.000	0.002	0.006	0.001	0.003	0.002	0.000	0.001	0.001	0.002	0.003	0.003	0.001
754.00	0.000	0.002	0.006	0.001	0.003	0.002	0.000	0.001	0.001	0.002	0.003	0.003	0.001
755.00	0.000	0.002	0.006	0.001	0.003	0.002	0.000	0.001	0.002	0.002	0.003	0.003	0.001
756.00	-0.000	0.002	0.006	0.001	0.003	0.002	0.000	0.001	0.001	0.002	0.003	0.003	0.001
757.00	-0.000	0.002	0.006	0.001	0.003	0.002	0.000	0.001	0.001	0.002	0.003	0.003	0.001
758.00	0.000	0.002	0.007	0.001	0.003	0.002	0.000	0.001	0.002	0.002	0.003	0.003	0.001
759.00	0.000	0.002	0.007	0.002	0.004	0.003	0.001	0.002	0.002	0.002	0.003	0.003	0.002
760.00	0.001	0.003	0.008	0.002	0.005	0.003	0.002	0.003	0.003	0.003	0.004	0.004	0.002
761.00	0.000	0.002	0.007	0.002	0.004	0.003	0.001	0.002	0.002	0.002	0.003	0.003	0.001
762.00	-0.000	0.002	0.006	0.001	0.003	0.002	0.000	0.001	0.001	0.002	0.003	0.003	0.001
763.00	-0.000	0.002	0.006	0.001	0.003	0.002	0.000	0.001	0.001	0.002	0.003	0.003	0.001
764.00	-0.000	0.002	0.006	0.001	0.003	0.002	0.000	0.001	0.001	0.002	0.003	0.003	0.001
765.00	-0.000	0.002	0.006	0.001	0.003	0.002	0.001	0.001	0.001	0.002	0.003	0.003	0.001
766.00	0.000	0.002	0.006	0.001	0.004	0.002	0.001	0.001	0.001	0.002	0.003	0.003	0.001
767.00	0.000	0.002	0.006	0.001	0.003	0.002	0.001	0.001	0.001	0.002	0.003	0.003	0.001
768.00	0.000	0.002	0.006	0.001	0.003	0.002	0.000	0.001	0.001	0.002	0.003	0.003	0.001
769.00	-0.000	0.002	0.006	0.001	0.003	0.002	0.000	0.001	0.001	0.002	0.002	0.003	0.001
770.00	-0.000	0.002	0.006	0.001	0.003	0.002	0.000	0.001	0.001	0.002	0.002	0.003	0.001
771.00	-0.000	0.002	0.006	0.001	0.003	0.002	0.000	0.001	0.001	0.002	0.003	0.003	0.001
772.00	-0.000	0.002	0.006	0.001	0.003	0.002	0.000	0.001	0.001	0.002	0.003	0.003	0.001
773.00	-0.000	0.002	0.006	0.001	0.003	0.002	0.000	0.001	0.001	0.002	0.003	0.003	0.001
774.00	-0.000	0.002	0.006	0.001	0.003	0.002	0.000	0.001	0.001	0.002	0.003	0.003	0.001
775.00	-0.000	0.002	0.006	0.001	0.003	0.002	0.000	0.001	0.001	0.002	0.003	0.003	0.001
776.00	-0.000	0.002	0.006	0.001	0.003	0.002	0.000	0.001	0.001	0.002	0.003	0.003	0.001
777.00	0.000	0.002	0.006	0.001	0.003	0.002	0.001	0.001	0.002	0.002	0.003	0.003	0.001
778.00	0.000	0.002	0.006	0.001	0.003	0.002	0.001	0.001	0.001	0.002	0.003	0.003	0.001
779.00	0.000	0.002	0.006	0.001	0.003	0.002	0.001	0.001	0.001	0.002	0.003	0.003	0.001
780.00	0.000	0.002	0.006	0.001	0.004	0.002	0.001	0.001	0.002	0.002	0.003	0.003	0.001
781.00	0.000	0.002	0.006	0.001	0.003	0.002	0.000	0.001	0.001	0.002	0.003	0.003	0.001
782.00	0.000	0.002	0.006	0.001	0.003	0.002	0.000	0.001	0.001	0.002	0.003	0.003	0.001
783.00	-0.000	0.002	0.006	0.001	0.003	0.002	0.000	0.001	0.001	0.002	0.003	0.003	0.001
784.00	0.000	0.002	0.006	0.001	0.003	0.002	0.000	0.001	0.001	0.002	0.003	0.003	0.001
785.00	0.000	0.002	0.006	0.001	0.003	0.002	0.001	0.001	0.001	0.002	0.003	0.003	0.001
786.00	0.000	0.002	0.006	0.001	0.003	0.002	0.001	0.001	0.001	0.002	0.003	0.003	0.001
787.00	0.000	0.002	0.006	0.001	0.003	0.002	0.000	0.001	0.001	0.002	0.003	0.003	0.001
788.00	-0.000	0.002	0.006	0.001	0.003	0.002	0.000	0.001	0.001	0.002	0.003	0.003	0.001
789.00	0.000	0.002	0.006	0.001	0.004	0.002	0.001	0.001	0.002	0.002	0.003	0.003	0.001
790.00	0.000	0.002	0.006	0.001	0.003	0.002	0.001	0.001	0.002	0.002	0.003	0.003	0.001
791.00	0.000	0.002	0.006	0.001	0.003	0.002	0.000	0.001	0.002	0.002	0.003	0.003	0.001
792.00	0.000	0.002	0.006	0.001	0.004	0.002	0.000	0.001	0.001	0.002	0.003	0.003	0.001
793.00	-0.000	0.002	0.006	0.001	0.003	0.002	0.000	0.001	0.001	0.002	0.003	0.003	0.001
794.00	-0.000	0.002	0.006	0.001	0.003	0.002	0.000	0.001	0.001	0.002	0.003	0.003	0.001
795.00	0.000	0.002	0.006	0.001	0.003	0.002	0.000	0.001	0.001	0.002	0.003	0.003	0.001
796.00	-0.000	0.002	0.006	0.001	0.003	0.002	0.000	0.001	0.001	0.002	0.003	0.003	0.001
797.00	-0.000	0.002	0.006	0.001	0.003	0.002	0.000	0.001	0.001	0.002	0.003	0.003	0.001
798.00	-0.000	0.002	0.006	0.001	0.003	0.002	0.001	0.001	0.001	0.002	0.003	0.003	0.001
799.00	-0.000	0.002	0.006	0.001	0.003	0.002	0.001	0.001	0.001	0.002	0.003	0.003	0.001
800.00	-0.000	0.002	0.006	0.001	0.003	0.002	0.000	0.001	0.001	0.002	0.003	0.003	0.001
801.00	-0.000	0.002	0.006	0.001	0.003	0.002	0.001	0.001	0.001	0.002	0.003	0.003	0.001
802.00	-0.000	0.002	0.006	0.001	0.003	0.002	0.001	0.001	0.001	0.002	0.003	0.003	0.001
803.00	0.000	0.002	0.006	0.001	0.004	0.002	0.001	0.001	0.001	0.002	0.003	0.003	0.001
804.00	0.000	0.002	0.006	0.001	0.003	0.002	0.001	0.001	0.001	0.002	0.003	0.003	0.001
805.00	0.000	0.002	0.006	0.001	0.003	0.002	0.001	0.001	0.001	0.002	0.003	0.003	0.001
806.00	0.000	0.002	0.006	0.001	0.003	0.002	0.000	0.001	0.001	0.002	0.003	0.003	0.001
807.00	0.000	0.002	0.006	0.001	0.003	0.002	0.000	0.001	0.001	0.002	0.003	0.003	0.001
808.00	-0.000	0.002	0.006	0.001	0.003	0.002	0.000	0.001	0.001	0.002	0.003	0.003	0.001
809.00	-0.000	0.002	0.006	0.001	0.003	0.002	0.000	0.001	0.001	0.002	0.003	0.003	0.001
810.00	-0.000	0.002	0.006	0.001	0.003	0.002	0.001	0.001	0.001	0.002	0.003	0.003	0.001
811.00	-0.000	0.002	0.006	0.001	0.003	0.002	0.000	0.001	0.001	0.002	0.003	0.003	0.001
812.00	-0.000	0.002	0.006	0.001	0.003	0.002	0.000	0.001	0.001	0.002	0.003	0.003	0.001
813.00	-0.000	0.002	0.006	0.001	0.003	0.002	0.000	0.001	0.001	0.002	0.003	0.003	0.001
814.00	0.000	0.002	0.006	0.001	0.003	0.002	0.001	0.001	0.002	0.002	0.003	0.003	0.001
815.00	0.000	0.002	0.006	0.001	0.003	0.002	0.001	0.001	0.001	0.002	0.003	0.003	0.001
816.00	0.000	0.002	0.006	0.001	0.003	0.002	0.000	0.001	0.001	0.002	0.003	0.003	0.001
817.00	0.000	0.002	0.006	0.001	0.003	0.002	0.000	0.001	0.002	0.002	0.003	0.003	0.001
818.00	0.000	0.002	0.006	0.001	0.003	0.002	0.000	0.001	0.001	0.002	0.003	0.003	0.001
819.00	0.000	0.002	0.006	0.001	0.003	0.002	0.000	0.001	0.001	0.002	0.003	0.003	0.001
820.00	0.000	0.002	0.006	0.001	0.003	0.002	0.000	0.001	0.001	0.002	0.003	0.003	0.001
821.00	0.000	0.002	0.006	0.001	0.003	0.002	0.000	0.001	0.001	0.002	0.003	0.003	0.001
822.00	-0.000	0.002	0.006	0.001	0.003	0.002	0.000	0.001	0.001	0.002	0.003	0.003	0.001
823.00	0.000	0.002	0.006	0.001	0.003	0.002	0.000	0.001	0.001	0.002	0.003	0.003	0.001
824.00	-0.000	0.002	0.006	0.001	0.003	0.002	0.000	0.001	0.001	0.002	0.003	0.003	0.001
825.00	-0.000	0.002	0.006	0.001	0.003	0.002	0.000	0.001	0.001	0.002	0.003	0.003	0.001
826.00	0.000	0.002	0.006	0.001	0.003	0.002	0.001	0.001	0.001	0.002	0.003	0.003	0.001
827.00	0.000	0.002	0.006	0.001	0.003	0.002	0.001	0.001	0.001	0.002	0.003	0.003	0.001
828.00	0.000	0.002	0.006	0.001	0.003	0.002	0.000	0.001	0.001	0.002	0.003	0.003	0.001
829.00	0.000	0.001	0.006	0.001	0.003	0.002	0.000	0.001	0.001	0.001	0.003	0.003	0.001
830.00	0.000	0.001	0.006	0.001	0.003	0.002	0.000	0.001	0.001	0.001	0.003	0.003	0.001
831.00	0.000	0.001	0.006	0.001	0.003	0.002	0.000	0.001	0.001	0.001	0.003	0.003	0.001
832.00	0.000	0.001	0.006	0.001	0.003	0.002	0.000	0.001	0.001	0.001	0.002	0.003	0.001
833.00	0.000	0.001	0.006	0.001	0.003	0.002	0.000	0.001	0.001	0.001	0.002	0.003	0.001
834.00	0.000	0.001	0.006	0.001	0.003	0.002	0.000	0.001	0.001	0.001	0.002	0.003	0.001
835.00	0.000	0.001	0.006	0.001	0.003	0.002	0.000	0.001	0.001	0.001	0.002	0.003	0.001
836.00	0.000	0.001	0.006	0.001	0.003	0.002	0.000	0.001	0.001	0.001	0.002	0.003	0.001
837.00	0.000	0.001	0.006	0.001	0.003	0.002	0.000	0.001	0.001	0.002	0.003	0.003	0.001
838.00	0.000	0.001	0.006	0.001	0.003	0.002	0.000	0.001	0.001	0.002	0.003	0.003	0.001
839.00	0.000	0.001	0.006	0.001	0.003	0.002	0.000	0.001	0.001	0.001	0.002	0.003	0.001
840.00	0.000	0.001	0.006	0.001	0.003	0.002	0.000	0.001	0.001	0.001	0.002	0.003	0.001
841.00	0.000	0.001	0.006	0.001	0.003	0.002	0.000	0.001	0.001	0.001	0.002	0.003	0.001
842.00	0.000	0.001	0.006	0.001	0.003	0.002	0.000	0.001	0.001	0.001	0.002	0.003	0.001
843.00	0.000	0.001	0.006	0.001	0.003	0.002	0.000	0.001	0.001	0.001	0.002	0.003	0.001
844.00	0.000	0.001	0.006	0.001	0.003	0.002	0.000	0.001	0.001	0.001	0.002	0.003	0.001
845.00	0.000	0.001	0.006	0.001	0.003	0.002	0.000	0.001	0.001	0.001	0.003	0.003	0.001
846.00	0.000	0.002	0.006	0.001	0.003	0.002	0.000	0.001	0.001	0.001	0.003	0.003	0.001
847.00	0.000	0.002	0.006	0.001	0.003	0.002	0.000	0.001	0.001	0.001	0.002	0.003	0.001
848.00	0.000	0.002	0.006	0.001	0.003	0.002	0.000	0.001	0.001	0.001	0.003	0.003	0.001
849.00	0.000	0.002	0.006	0.001	0.003	0.002	0.000	0.001	0.001	0.002	0.003	0.003	0.001
850.00	0.000	0.001	0.006	0.001	0.003	0.002	0.000	0.001	0.001	0.001	0.003	0.003	0.001
