Wavelength nm.	RawData ...	RawData ...	RawData ...	RawData ...	RawData ...	RawData ...	RawData ...	RawData ...	RawData ...	RawData ...	RawData ...	RawData ...	RawData ...	RawData ...	RawData ...	RawData ...
190.00	0.009	0.417	0.469	0.375	0.386	0.370	0.424	0.380	0.385	0.342	0.399	0.339	0.509	0.576	0.419	0.429
191.00	0.008	0.384	0.428	0.343	0.352	0.337	0.385	0.350	0.347	0.313	0.368	0.305	0.468	0.527	0.387	0.395
192.00	0.007	0.353	0.387	0.312	0.322	0.306	0.352	0.320	0.318	0.288	0.339	0.279	0.430	0.484	0.354	0.364
193.00	0.007	0.319	0.346	0.280	0.291	0.273	0.316	0.288	0.283	0.259	0.310	0.249	0.387	0.432	0.321	0.330
194.00	0.006	0.293	0.314	0.255	0.265	0.247	0.288	0.262	0.258	0.238	0.286	0.226	0.356	0.392	0.296	0.303
195.00	0.006	0.268	0.283	0.232	0.242	0.223	0.262	0.238	0.234	0.217	0.264	0.206	0.326	0.354	0.271	0.278
196.00	0.006	0.247	0.257	0.212	0.222	0.204	0.240	0.218	0.215	0.201	0.246	0.188	0.301	0.323	0.250	0.258
197.00	0.006	0.227	0.235	0.194	0.204	0.186	0.220	0.200	0.196	0.185	0.229	0.173	0.277	0.295	0.231	0.240
198.00	0.005	0.209	0.216	0.179	0.188	0.171	0.202	0.184	0.180	0.172	0.214	0.160	0.257	0.271	0.215	0.224
199.00	0.005	0.195	0.200	0.166	0.176	0.158	0.187	0.171	0.166	0.162	0.203	0.149	0.240	0.252	0.201	0.211
200.00	0.005	0.183	0.187	0.155	0.165	0.148	0.175	0.161	0.155	0.153	0.193	0.140	0.226	0.235	0.191	0.200
201.00	0.004	0.171	0.174	0.145	0.155	0.138	0.163	0.151	0.145	0.145	0.184	0.131	0.212	0.220	0.181	0.190
202.00	0.004	0.161	0.164	0.136	0.146	0.129	0.152	0.141	0.135	0.137	0.176	0.123	0.200	0.206	0.172	0.181
203.00	0.004	0.153	0.155	0.128	0.138	0.121	0.144	0.134	0.128	0.130	0.169	0.117	0.191	0.195	0.165	0.173
204.00	0.004	0.145	0.148	0.122	0.131	0.115	0.136	0.127	0.121	0.124	0.163	0.111	0.182	0.185	0.158	0.166
205.00	0.003	0.138	0.142	0.116	0.125	0.109	0.129	0.121	0.115	0.119	0.157	0.106	0.175	0.176	0.152	0.160
206.00	0.003	0.133	0.137	0.111	0.120	0.105	0.123	0.116	0.110	0.114	0.152	0.101	0.168	0.169	0.146	0.154
207.00	0.003	0.127	0.132	0.106	0.115	0.100	0.118	0.111	0.105	0.110	0.147	0.097	0.162	0.163	0.142	0.149
208.00	0.003	0.123	0.129	0.103	0.111	0.096	0.114	0.107	0.101	0.106	0.142	0.094	0.157	0.158	0.137	0.145
209.00	0.003	0.118	0.125	0.099	0.107	0.093	0.109	0.103	0.097	0.103	0.137	0.091	0.152	0.153	0.132	0.140
210.00	0.003	0.115	0.122	0.095	0.104	0.089	0.106	0.100	0.094	0.100	0.133	0.088	0.148	0.149	0.129	0.135
211.00	0.003	0.111	0.119	0.093	0.101	0.087	0.102	0.097	0.091	0.097	0.128	0.085	0.143	0.145	0.124	0.130
212.00	0.003	0.107	0.116	0.089	0.097	0.084	0.098	0.094	0.087	0.094	0.123	0.082	0.139	0.141	0.120	0.126
213.00	0.003	0.104	0.113	0.087	0.094	0.081	0.095	0.091	0.084	0.091	0.118	0.080	0.135	0.137	0.116	0.121
214.00	0.003	0.101	0.110	0.084	0.091	0.079	0.092	0.088	0.082	0.088	0.113	0.077	0.131	0.133	0.112	0.117
215.00	0.003	0.098	0.108	0.082	0.089	0.077	0.089	0.086	0.080	0.086	0.108	0.075	0.127	0.130	0.108	0.112
216.00	0.003	0.095	0.106	0.080	0.086	0.075	0.086	0.083	0.077	0.084	0.103	0.073	0.124	0.127	0.104	0.108
217.00	0.002	0.093	0.104	0.077	0.084	0.072	0.084	0.081	0.075	0.082	0.099	0.071	0.120	0.125	0.100	0.104
218.00	0.002	0.091	0.102	0.075	0.082	0.071	0.082	0.079	0.073	0.080	0.094	0.070	0.117	0.122	0.097	0.100
219.00	0.002	0.089	0.100	0.074	0.080	0.069	0.080	0.077	0.071	0.078	0.090	0.068	0.115	0.120	0.094	0.096
220.00	0.002	0.087	0.098	0.072	0.078	0.067	0.077	0.076	0.069	0.077	0.086	0.066	0.112	0.117	0.090	0.093
221.00	0.002	0.085	0.096	0.070	0.077	0.066	0.075	0.074	0.068	0.075	0.082	0.065	0.109	0.115	0.087	0.089
222.00	0.002	0.083	0.094	0.069	0.075	0.064	0.074	0.072	0.066	0.073	0.078	0.063	0.107	0.113	0.085	0.086
223.00	0.003	0.082	0.093	0.068	0.074	0.063	0.072	0.071	0.065	0.072	0.075	0.062	0.104	0.111	0.082	0.083
224.00	0.002	0.080	0.091	0.066	0.072	0.061	0.070	0.069	0.063	0.070	0.072	0.061	0.102	0.109	0.079	0.080
225.00	0.002	0.078	0.090	0.065	0.071	0.060	0.069	0.068	0.062	0.069	0.069	0.059	0.099	0.107	0.077	0.077
226.00	0.002	0.077	0.088	0.063	0.069	0.059	0.067	0.066	0.060	0.067	0.066	0.058	0.097	0.104	0.075	0.074
227.00	0.002	0.075	0.087	0.062	0.068	0.058	0.066	0.065	0.059	0.066	0.063	0.057	0.095	0.103	0.073	0.072
228.00	0.002	0.074	0.085	0.061	0.067	0.056	0.065	0.064	0.058	0.065	0.061	0.056	0.093	0.101	0.071	0.070
229.00	0.002	0.072	0.084	0.060	0.066	0.055	0.063	0.063	0.057	0.063	0.059	0.055	0.091	0.099	0.069	0.068
230.00	0.002	0.071	0.082	0.058	0.064	0.054	0.062	0.061	0.055	0.062	0.057	0.053	0.089	0.097	0.067	0.066
231.00	0.002	0.069	0.081	0.057	0.063	0.053	0.060	0.060	0.054	0.061	0.055	0.052	0.087	0.095	0.065	0.064
232.00	0.002	0.068	0.079	0.056	0.062	0.052	0.059	0.059	0.053	0.060	0.053	0.051	0.085	0.093	0.063	0.062
233.00	0.002	0.066	0.078	0.055	0.061	0.051	0.058	0.058	0.052	0.059	0.051	0.050	0.083	0.091	0.062	0.061
234.00	0.002	0.065	0.077	0.054	0.060	0.050	0.057	0.057	0.051	0.058	0.050	0.050	0.082	0.089	0.061	0.059
235.00	0.002	0.064	0.075	0.053	0.059	0.049	0.055	0.056	0.050	0.057	0.049	0.049	0.080	0.087	0.059	0.058
236.00	0.002	0.063	0.074	0.052	0.058	0.048	0.055	0.055	0.049	0.056	0.047	0.048	0.078	0.086	0.058	0.057
237.00	0.002	0.062	0.073	0.052	0.057	0.047	0.054	0.054	0.048	0.055	0.046	0.047	0.077	0.084	0.057	0.056
238.00	0.002	0.061	0.072	0.051	0.056	0.047	0.053	0.053	0.048	0.054	0.046	0.047	0.076	0.083	0.056	0.055
239.00	0.002	0.060	0.071	0.050	0.055	0.046	0.052	0.053	0.047	0.053	0.045	0.046	0.074	0.082	0.055	0.054
240.00	0.002	0.059	0.071	0.049	0.054	0.046	0.051	0.052	0.046	0.052	0.044	0.045	0.073	0.080	0.054	0.053
241.00	0.001	0.058	0.070	0.048	0.054	0.045	0.050	0.051	0.045	0.052	0.043	0.044	0.072	0.079	0.053	0.052
242.00	0.001	0.058	0.069	0.048	0.053	0.044	0.050	0.050	0.045	0.051	0.042	0.044	0.071	0.078	0.053	0.051
243.00	0.001	0.057	0.068	0.047	0.052	0.043	0.049	0.049	0.044	0.050	0.042	0.043	0.070	0.076	0.052	0.051
244.00	0.001	0.056	0.067	0.047	0.052	0.043	0.048	0.049	0.044	0.049	0.041	0.043	0.069	0.075	0.051	0.050
245.00	0.001	0.056	0.066	0.046	0.051	0.043	0.048	0.048	0.043	0.049	0.041	0.042	0.068	0.074	0.051	0.049
246.00	0.001	0.055	0.066	0.046	0.051	0.042	0.047	0.048	0.043	0.049	0.040	0.042	0.068	0.074	0.050	0.049
247.00	0.001	0.055	0.065	0.045	0.050	0.042	0.047	0.047	0.042	0.048	0.040	0.042	0.067	0.073	0.049	0.048
248.00	0.001	0.054	0.064	0.045	0.050	0.041	0.046	0.047	0.042	0.048	0.039	0.041	0.066	0.072	0.049	0.048
249.00	0.001	0.053	0.064	0.044	0.049	0.041	0.046	0.046	0.042	0.047	0.039	0.041	0.066	0.071	0.048	0.047
250.00	0.001	0.053	0.063	0.044	0.049	0.041	0.046	0.046	0.041	0.047	0.039	0.040	0.065	0.071	0.048	0.047
251.00	0.001	0.053	0.063	0.044	0.049	0.041	0.046	0.046	0.041	0.047	0.038	0.040	0.065	0.070	0.048	0.047
252.00	0.001	0.053	0.062	0.044	0.048	0.040	0.045	0.045	0.041	0.046	0.038	0.040	0.064	0.070	0.047	0.046
253.00	0.001	0.052	0.061	0.043	0.048	0.040	0.045	0.045	0.040	0.046	0.037	0.040	0.064	0.069	0.047	0.046
254.00	0.001	0.052	0.061	0.043	0.047	0.039	0.044	0.044	0.040	0.045	0.037	0.039	0.063	0.068	0.046	0.045
255.00	0.001	0.051	0.060	0.042	0.047	0.039	0.044	0.044	0.040	0.045	0.037	0.039	0.063	0.067	0.046	0.045
256.00	0.001	0.051	0.060	0.042	0.047	0.039	0.044	0.044	0.040	0.045	0.037	0.039	0.063	0.067	0.046	0.044
257.00	0.001	0.051	0.060	0.042	0.046	0.039	0.044	0.043	0.039	0.044	0.036	0.038	0.062	0.067	0.045	0.044
258.00	0.001	0.050	0.059	0.041	0.046	0.038	0.043	0.043	0.039	0.044	0.036	0.038	0.062	0.066	0.045	0.044
259.00	0.001	0.050	0.058	0.041	0.046	0.038	0.043	0.042	0.038	0.043	0.035	0.037	0.061	0.065	0.044	0.043
260.00	0.001	0.050	0.058	0.041	0.045	0.038	0.042	0.042	0.038	0.043	0.035	0.037	0.061	0.065	0.044	0.043
261.00	0.001	0.049	0.058	0.040	0.045	0.037	0.042	0.042	0.038	0.042	0.035	0.037	0.060	0.064	0.043	0.042
262.00	0.001	0.049	0.057	0.040	0.044	0.037	0.042	0.041	0.037	0.042	0.034	0.036	0.060	0.063	0.043	0.042
263.00	0.001	0.048	0.056	0.039	0.044	0.036	0.041	0.040	0.037	0.041	0.034	0.036	0.059	0.063	0.042	0.041
264.00	0.001	0.048	0.056	0.039	0.043	0.036	0.041	0.040	0.036	0.041	0.033	0.036	0.059	0.062	0.042	0.041
265.00	0.001	0.047	0.055	0.038	0.043	0.036	0.040	0.039	0.036	0.041	0.033	0.035	0.058	0.061	0.042	0.040
266.00	0.001	0.047	0.054	0.038	0.043	0.035	0.040	0.039	0.036	0.040	0.033	0.035	0.057	0.060	0.041	0.040
267.00	0.001	0.046	0.054	0.037	0.042	0.035	0.039	0.038	0.035	0.039	0.032	0.034	0.056	0.060	0.041	0.040
268.00	0.001	0.046	0.053	0.036	0.041	0.034	0.039	0.038	0.034	0.039	0.032	0.033	0.056	0.059	0.040	0.039
269.00	0.001	0.045	0.052	0.036	0.041	0.033	0.038	0.037	0.034	0.038	0.031	0.033	0.055	0.058	0.039	0.038
270.00	0.001	0.044	0.052	0.035	0.040	0.033	0.038	0.037	0.034	0.038	0.031	0.033	0.054	0.057	0.039	0.038
271.00	0.001	0.044	0.051	0.035	0.040	0.032	0.037	0.036	0.033	0.037	0.030	0.032	0.053	0.056	0.038	0.037
272.00	0.001	0.043	0.050	0.034	0.039	0.032	0.036	0.035	0.032	0.037	0.030	0.031	0.053	0.055	0.038	0.037
273.00	0.001	0.042	0.050	0.034	0.038	0.031	0.036	0.034	0.032	0.036	0.029	0.031	0.052	0.054	0.037	0.036
274.00	0.001	0.042	0.049	0.033	0.038	0.031	0.035	0.034	0.031	0.035	0.029	0.030	0.051	0.053	0.037	0.035
275.00	0.001	0.041	0.048	0.032	0.037	0.030	0.034	0.033	0.030	0.034	0.028	0.029	0.050	0.052	0.036	0.035
276.00	0.001	0.040	0.047	0.031	0.036	0.029	0.034	0.032	0.030	0.034	0.028	0.028	0.049	0.052	0.035	0.034
277.00	0.001	0.040	0.047	0.031	0.036	0.029	0.033	0.032	0.029	0.033	0.027	0.028	0.049	0.051	0.035	0.034
278.00	0.001	0.039	0.046	0.030	0.035	0.028	0.032	0.031	0.028	0.032	0.027	0.027	0.048	0.050	0.034	0.033
279.00	0.001	0.038	0.045	0.030	0.034	0.027	0.032	0.030	0.027	0.032	0.026	0.027	0.047	0.049	0.033	0.032
280.00	0.001	0.037	0.044	0.029	0.033	0.027	0.031	0.030	0.027	0.031	0.026	0.026	0.046	0.048	0.033	0.031
281.00	0.001	0.037	0.044	0.028	0.033	0.026	0.030	0.029	0.026	0.030	0.025	0.025	0.045	0.047	0.032	0.031
282.00	0.001	0.036	0.043	0.027	0.032	0.025	0.030	0.028	0.026	0.030	0.025	0.024	0.044	0.046	0.031	0.030
283.00	0.001	0.035	0.042	0.027	0.031	0.025	0.029	0.028	0.025	0.029	0.024	0.024	0.043	0.045	0.031	0.030
284.00	0.001	0.035	0.041	0.026	0.030	0.024	0.028	0.027	0.024	0.028	0.023	0.023	0.042	0.044	0.030	0.029
285.00	0.001	0.034	0.041	0.025	0.030	0.023	0.027	0.026	0.024	0.027	0.023	0.023	0.042	0.043	0.030	0.029
286.00	0.001	0.033	0.040	0.025	0.029	0.023	0.027	0.025	0.023	0.027	0.023	0.022	0.041	0.042	0.029	0.028
287.00	0.001	0.032	0.039	0.024	0.028	0.022	0.026	0.025	0.023	0.026	0.022	0.021	0.040	0.042	0.028	0.027
288.00	0.001	0.032	0.039	0.023	0.028	0.022	0.025	0.024	0.022	0.025	0.022	0.021	0.039	0.041	0.028	0.027
289.00	0.001	0.031	0.038	0.023	0.027	0.021	0.025	0.023	0.021	0.025	0.021	0.020	0.038	0.040	0.027	0.026
290.00	0.001	0.030	0.037	0.022	0.026	0.021	0.024	0.023	0.020	0.024	0.020	0.019	0.037	0.039	0.027	0.025
291.00	0.001	0.029	0.036	0.021	0.025	0.020	0.023	0.022	0.020	0.023	0.020	0.019	0.037	0.038	0.026	0.025
292.00	0.001	0.029	0.036	0.021	0.025	0.019	0.022	0.021	0.019	0.023	0.020	0.018	0.036	0.037	0.025	0.024
293.00	0.000	0.028	0.035	0.020	0.024	0.019	0.022	0.021	0.018	0.022	0.019	0.017	0.035	0.036	0.024	0.024
294.00	0.001	0.027	0.035	0.020	0.024	0.018	0.021	0.020	0.018	0.022	0.018	0.017	0.034	0.036	0.024	0.023
295.00	0.001	0.027	0.034	0.019	0.023	0.018	0.021	0.020	0.018	0.021	0.018	0.017	0.034	0.035	0.024	0.023
296.00	0.001	0.026	0.033	0.019	0.023	0.017	0.020	0.019	0.017	0.021	0.018	0.016	0.033	0.034	0.023	0.022
297.00	0.001	0.025	0.033	0.018	0.022	0.016	0.019	0.019	0.016	0.020	0.017	0.016	0.032	0.034	0.022	0.022
298.00	0.001	0.025	0.032	0.018	0.022	0.016	0.019	0.018	0.016	0.020	0.017	0.015	0.031	0.033	0.022	0.021
299.00	0.001	0.024	0.032	0.017	0.021	0.016	0.019	0.018	0.015	0.019	0.017	0.015	0.031	0.032	0.021	0.021
300.00	0.001	0.024	0.031	0.017	0.021	0.015	0.018	0.017	0.015	0.019	0.016	0.014	0.030	0.032	0.021	0.020
301.00	0.001	0.023	0.031	0.016	0.020	0.015	0.018	0.017	0.014	0.018	0.016	0.014	0.029	0.031	0.021	0.020
302.00	0.001	0.023	0.030	0.016	0.020	0.014	0.017	0.016	0.014	0.018	0.015	0.014	0.029	0.030	0.020	0.020
303.00	0.001	0.022	0.030	0.016	0.019	0.014	0.017	0.016	0.014	0.017	0.015	0.013	0.028	0.030	0.020	0.019
304.00	0.001	0.022	0.029	0.015	0.019	0.014	0.016	0.015	0.013	0.017	0.015	0.013	0.028	0.029	0.019	0.019
305.00	0.001	0.021	0.029	0.015	0.018	0.013	0.016	0.015	0.013	0.017	0.014	0.013	0.027	0.028	0.019	0.018
306.00	0.001	0.021	0.028	0.015	0.018	0.013	0.015	0.015	0.013	0.016	0.014	0.012	0.026	0.028	0.019	0.018
307.00	0.001	0.020	0.028	0.014	0.018	0.013	0.015	0.014	0.012	0.016	0.014	0.012	0.026	0.027	0.018	0.018
308.00	0.000	0.020	0.027	0.014	0.017	0.013	0.014	0.014	0.012	0.016	0.014	0.012	0.026	0.027	0.018	0.017
309.00	0.000	0.020	0.027	0.014	0.017	0.012	0.014	0.013	0.012	0.015	0.013	0.011	0.025	0.026	0.017	0.017
310.00	0.000	0.019	0.026	0.013	0.016	0.012	0.014	0.013	0.011	0.015	0.013	0.011	0.024	0.026	0.017	0.017
311.00	0.001	0.019	0.026	0.013	0.016	0.011	0.013	0.013	0.011	0.014	0.013	0.011	0.024	0.025	0.017	0.016
312.00	0.001	0.019	0.026	0.013	0.016	0.011	0.013	0.013	0.011	0.014	0.012	0.010	0.023	0.025	0.016	0.016
313.00	0.001	0.018	0.025	0.012	0.016	0.011	0.013	0.012	0.010	0.014	0.012	0.010	0.023	0.024	0.016	0.016
314.00	0.001	0.018	0.025	0.012	0.015	0.011	0.012	0.012	0.010	0.014	0.012	0.010	0.022	0.024	0.016	0.015
315.00	0.000	0.017	0.025	0.012	0.015	0.010	0.012	0.011	0.010	0.013	0.011	0.010	0.022	0.023	0.015	0.015
316.00	0.000	0.017	0.024	0.011	0.015	0.010	0.012	0.011	0.009	0.013	0.011	0.009	0.021	0.023	0.015	0.014
317.00	0.000	0.017	0.024	0.011	0.014	0.010	0.011	0.011	0.009	0.013	0.011	0.009	0.021	0.022	0.014	0.014
318.00	0.000	0.017	0.023	0.011	0.014	0.010	0.011	0.010	0.009	0.012	0.011	0.009	0.021	0.022	0.014	0.014
319.00	0.000	0.016	0.023	0.011	0.014	0.009	0.011	0.010	0.009	0.012	0.010	0.009	0.020	0.022	0.014	0.014
320.00	0.000	0.016	0.023	0.011	0.013	0.009	0.011	0.010	0.009	0.012	0.010	0.009	0.020	0.021	0.014	0.014
321.00	0.000	0.016	0.022	0.011	0.013	0.009	0.010	0.010	0.008	0.011	0.010	0.008	0.020	0.021	0.013	0.013
322.00	0.000	0.015	0.022	0.010	0.013	0.009	0.010	0.010	0.008	0.011	0.010	0.008	0.019	0.020	0.013	0.013
323.00	0.000	0.015	0.022	0.010	0.013	0.008	0.010	0.009	0.008	0.011	0.009	0.008	0.019	0.020	0.013	0.013
324.00	0.000	0.015	0.021	0.010	0.012	0.009	0.010	0.009	0.008	0.011	0.010	0.008	0.019	0.020	0.013	0.012
325.00	0.000	0.015	0.021	0.010	0.012	0.009	0.009	0.009	0.008	0.011	0.009	0.008	0.018	0.020	0.012	0.012
326.00	0.001	0.014	0.021	0.009	0.012	0.008	0.009	0.009	0.007	0.010	0.009	0.008	0.018	0.019	0.012	0.012
327.00	0.000	0.014	0.021	0.009	0.012	0.008	0.009	0.009	0.007	0.010	0.009	0.007	0.018	0.019	0.012	0.012
328.00	0.000	0.014	0.020	0.009	0.011	0.008	0.009	0.008	0.007	0.010	0.009	0.007	0.017	0.018	0.012	0.011
329.00	0.000	0.014	0.020	0.009	0.011	0.008	0.009	0.008	0.007	0.010	0.008	0.007	0.017	0.018	0.011	0.011
330.00	0.000	0.013	0.020	0.009	0.011	0.008	0.009	0.008	0.007	0.009	0.008	0.007	0.017	0.017	0.011	0.011
331.00	0.000	0.014	0.019	0.008	0.011	0.007	0.008	0.008	0.007	0.010	0.008	0.007	0.017	0.017	0.011	0.011
332.00	0.000	0.013	0.019	0.008	0.011	0.007	0.008	0.007	0.006	0.009	0.008	0.006	0.016	0.017	0.011	0.011
333.00	0.000	0.013	0.019	0.008	0.010	0.007	0.008	0.007	0.006	0.009	0.008	0.006	0.016	0.017	0.010	0.010
334.00	0.000	0.013	0.019	0.008	0.011	0.007	0.008	0.007	0.006	0.009	0.008	0.006	0.016	0.016	0.011	0.010
335.00	0.000	0.012	0.019	0.008	0.010	0.007	0.008	0.007	0.006	0.008	0.007	0.007	0.016	0.016	0.010	0.010
336.00	0.000	0.012	0.018	0.008	0.010	0.007	0.007	0.007	0.006	0.008	0.007	0.006	0.015	0.015	0.010	0.010
337.00	0.000	0.012	0.018	0.007	0.010	0.007	0.007	0.007	0.006	0.008	0.007	0.006	0.015	0.015	0.010	0.010
338.00	0.001	0.012	0.018	0.007	0.010	0.007	0.007	0.007	0.006	0.008	0.007	0.006	0.015	0.015	0.010	0.010
339.00	0.001	0.012	0.018	0.008	0.010	0.007	0.007	0.007	0.006	0.008	0.007	0.006	0.015	0.015	0.010	0.010
340.00	0.002	0.013	0.019	0.009	0.011	0.008	0.009	0.008	0.007	0.009	0.008	0.007	0.016	0.016	0.011	0.011
341.00	0.000	0.012	0.017	0.007	0.009	0.006	0.007	0.006	0.005	0.008	0.006	0.005	0.014	0.014	0.009	0.009
342.00	0.000	0.011	0.017	0.007	0.009	0.006	0.007	0.006	0.005	0.007	0.007	0.005	0.013	0.014	0.009	0.009
343.00	0.000	0.011	0.016	0.007	0.008	0.005	0.006	0.005	0.005	0.007	0.006	0.005	0.013	0.013	0.008	0.009
344.00	0.000	0.011	0.016	0.006	0.008	0.006	0.006	0.005	0.005	0.007	0.006	0.005	0.013	0.013	0.008	0.009
345.00	0.001	0.011	0.016	0.006	0.008	0.006	0.006	0.005	0.005	0.007	0.006	0.005	0.013	0.013	0.008	0.008
346.00	0.000	0.011	0.016	0.006	0.008	0.006	0.006	0.005	0.005	0.007	0.006	0.005	0.012	0.013	0.008	0.008
347.00	0.000	0.010	0.016	0.006	0.008	0.005	0.006	0.005	0.004	0.006	0.006	0.004	0.012	0.012	0.008	0.008
348.00	0.000	0.010	0.015	0.006	0.007	0.005	0.006	0.005	0.004	0.006	0.005	0.004	0.012	0.012	0.007	0.008
349.00	0.000	0.010	0.016	0.006	0.008	0.005	0.006	0.005	0.004	0.006	0.005	0.004	0.012	0.012	0.008	0.008
350.00	0.001	0.010	0.015	0.006	0.008	0.005	0.006	0.005	0.004	0.006	0.006	0.004	0.012	0.012	0.008	0.008
351.00	0.000	0.010	0.015	0.006	0.008	0.005	0.005	0.005	0.004	0.006	0.005	0.004	0.011	0.011	0.007	0.007
352.00	-0.000	0.010	0.015	0.005	0.007	0.004	0.005	0.004	0.004	0.005	0.005	0.004	0.011	0.011	0.007	0.007
353.00	0.000	0.010	0.014	0.005	0.007	0.004	0.005	0.004	0.004	0.006	0.005	0.004	0.010	0.010	0.007	0.007
354.00	-0.000	0.009	0.014	0.005	0.007	0.004	0.005	0.004	0.003	0.005	0.005	0.003	0.010	0.010	0.006	0.007
355.00	0.000	0.009	0.014	0.005	0.007	0.004	0.005	0.004	0.003	0.005	0.005	0.004	0.010	0.010	0.006	0.007
356.00	0.000	0.009	0.014	0.005	0.007	0.004	0.005	0.004	0.003	0.005	0.004	0.004	0.010	0.010	0.006	0.007
357.00	0.000	0.009	0.014	0.005	0.006	0.004	0.005	0.004	0.003	0.005	0.004	0.003	0.010	0.010	0.006	0.007
358.00	0.000	0.009	0.014	0.005	0.007	0.004	0.005	0.003	0.003	0.005	0.004	0.003	0.010	0.010	0.006	0.006
359.00	0.000	0.009	0.014	0.005	0.007	0.004	0.004	0.004	0.003	0.005	0.004	0.003	0.010	0.010	0.006	0.006
360.00	0.000	0.009	0.013	0.004	0.006	0.004	0.004	0.003	0.003	0.005	0.004	0.003	0.009	0.009	0.006	0.006
361.00	0.000	0.009	0.013	0.005	0.006	0.004	0.004	0.003	0.003	0.004	0.004	0.003	0.009	0.009	0.006	0.006
362.00	0.000	0.008	0.013	0.004	0.006	0.004	0.004	0.003	0.003	0.004	0.004	0.003	0.009	0.009	0.006	0.006
363.00	0.000	0.008	0.013	0.004	0.006	0.003	0.004	0.003	0.003	0.004	0.003	0.003	0.009	0.009	0.005	0.006
364.00	0.000	0.008	0.013	0.004	0.006	0.003	0.004	0.003	0.003	0.004	0.004	0.003	0.009	0.008	0.005	0.006
365.00	0.000	0.008	0.013	0.004	0.006	0.004	0.004	0.003	0.003	0.004	0.003	0.003	0.009	0.009	0.005	0.005
366.00	0.000	0.008	0.013	0.004	0.006	0.004	0.004	0.003	0.003	0.004	0.004	0.003	0.009	0.008	0.005	0.006
367.00	0.000	0.008	0.012	0.004	0.006	0.004	0.004	0.003	0.003	0.004	0.003	0.003	0.008	0.008	0.005	0.006
368.00	0.000	0.008	0.012	0.004	0.006	0.003	0.004	0.003	0.002	0.004	0.003	0.003	0.008	0.008	0.005	0.005
369.00	0.000	0.008	0.012	0.004	0.005	0.003	0.004	0.003	0.003	0.004	0.003	0.003	0.008	0.007	0.005	0.005
370.00	0.000	0.008	0.012	0.004	0.005	0.003	0.004	0.003	0.002	0.004	0.003	0.002	0.008	0.007	0.004	0.005
371.00	0.000	0.008	0.012	0.004	0.005	0.003	0.004	0.003	0.002	0.004	0.003	0.002	0.008	0.007	0.005	0.005
372.00	0.000	0.007	0.011	0.004	0.005	0.003	0.003	0.002	0.002	0.004	0.003	0.002	0.007	0.007	0.005	0.005
373.00	0.000	0.008	0.011	0.004	0.005	0.003	0.003	0.002	0.002	0.004	0.003	0.002	0.007	0.007	0.004	0.005
374.00	0.000	0.007	0.011	0.003	0.005	0.003	0.003	0.002	0.002	0.003	0.003	0.002	0.007	0.007	0.004	0.004
375.00	0.000	0.007	0.011	0.004	0.005	0.003	0.003	0.002	0.002	0.003	0.003	0.002	0.007	0.007	0.004	0.004
376.00	0.000	0.007	0.011	0.004	0.005	0.003	0.003	0.002	0.002	0.003	0.003	0.002	0.007	0.007	0.004	0.004
377.00	0.000	0.007	0.011	0.003	0.005	0.003	0.003	0.002	0.002	0.003	0.002	0.002	0.007	0.006	0.004	0.004
378.00	0.000	0.007	0.011	0.003	0.005	0.003	0.003	0.002	0.002	0.003	0.002	0.002	0.007	0.006	0.004	0.004
379.00	0.000	0.007	0.010	0.003	0.005	0.003	0.003	0.002	0.002	0.003	0.002	0.002	0.007	0.006	0.004	0.004
380.00	0.000	0.007	0.010	0.003	0.004	0.002	0.003	0.002	0.002	0.003	0.002	0.002	0.006	0.006	0.004	0.004
381.00	0.000	0.007	0.010	0.003	0.004	0.002	0.003	0.002	0.002	0.003	0.002	0.002	0.006	0.006	0.003	0.004
382.00	0.000	0.006	0.010	0.003	0.004	0.002	0.003	0.001	0.002	0.002	0.002	0.002	0.006	0.006	0.003	0.004
383.00	0.000	0.006	0.010	0.003	0.004	0.002	0.003	0.001	0.002	0.002	0.002	0.002	0.006	0.005	0.003	0.004
384.00	0.000	0.006	0.010	0.003	0.004	0.002	0.003	0.001	0.002	0.003	0.002	0.002	0.006	0.005	0.003	0.004
385.00	0.000	0.006	0.010	0.003	0.004	0.002	0.002	0.001	0.002	0.002	0.002	0.002	0.006	0.005	0.003	0.003
386.00	0.000	0.006	0.010	0.003	0.004	0.002	0.002	0.001	0.001	0.002	0.002	0.001	0.006	0.005	0.003	0.003
387.00	0.000	0.006	0.009	0.003	0.004	0.002	0.002	0.001	0.001	0.002	0.002	0.001	0.005	0.005	0.003	0.003
388.00	0.000	0.006	0.009	0.003	0.004	0.002	0.002	0.001	0.001	0.002	0.002	0.001	0.005	0.005	0.003	0.003
389.00	0.000	0.006	0.009	0.002	0.004	0.002	0.002	0.001	0.001	0.002	0.001	0.001	0.005	0.005	0.003	0.003
390.00	0.000	0.006	0.009	0.002	0.004	0.002	0.002	0.001	0.001	0.002	0.001	0.001	0.005	0.005	0.003	0.003
391.00	0.000	0.006	0.009	0.002	0.004	0.002	0.002	0.001	0.001	0.002	0.001	0.001	0.005	0.004	0.002	0.003
392.00	0.000	0.005	0.009	0.002	0.004	0.002	0.002	0.001	0.001	0.002	0.001	0.001	0.005	0.004	0.002	0.003
393.00	0.000	0.005	0.009	0.002	0.003	0.002	0.002	0.001	0.001	0.002	0.001	0.001	0.005	0.004	0.002	0.003
394.00	-0.000	0.005	0.009	0.002	0.003	0.002	0.002	0.001	0.001	0.002	0.001	0.001	0.005	0.004	0.002	0.003
395.00	-0.000	0.005	0.009	0.002	0.003	0.002	0.002	0.001	0.001	0.002	0.001	0.001	0.005	0.004	0.002	0.002
396.00	-0.000	0.005	0.008	0.002	0.003	0.002	0.002	0.001	0.001	0.002	0.001	0.001	0.004	0.004	0.002	0.003
397.00	-0.000	0.005	0.008	0.002	0.003	0.002	0.002	0.001	0.001	0.001	0.001	0.001	0.004	0.004	0.002	0.003
398.00	0.000	0.005	0.008	0.002	0.003	0.002	0.002	0.001	0.001	0.001	0.001	0.001	0.004	0.004	0.002	0.002
399.00	0.000	0.005	0.008	0.002	0.003	0.002	0.002	0.000	0.001	0.001	0.001	0.001	0.004	0.004	0.002	0.002
400.00	0.000	0.005	0.008	0.002	0.003	0.002	0.002	0.000	0.001	0.001	0.001	0.001	0.004	0.004	0.002	0.002
401.00	0.000	0.005	0.008	0.002	0.003	0.002	0.002	0.001	0.001	0.001	0.001	0.001	0.004	0.003	0.002	0.002
402.00	0.000	0.005	0.008	0.002	0.003	0.002	0.002	0.001	0.001	0.001	0.001	0.001	0.004	0.003	0.002	0.002
403.00	0.000	0.005	0.008	0.002	0.003	0.001	0.001	0.000	0.001	0.001	0.001	0.001	0.004	0.003	0.002	0.002
404.00	-0.000	0.005	0.008	0.002	0.003	0.001	0.001	0.000	0.001	0.001	0.001	0.001	0.004	0.003	0.001	0.002
405.00	0.000	0.005	0.008	0.002	0.003	0.001	0.001	0.000	0.001	0.001	0.001	0.001	0.004	0.003	0.001	0.002
406.00	0.000	0.005	0.008	0.002	0.003	0.001	0.001	0.000	0.001	0.001	0.000	0.001	0.004	0.003	0.001	0.002
407.00	-0.000	0.005	0.007	0.002	0.003	0.001	0.001	0.000	0.001	0.001	0.001	0.000	0.004	0.003	0.001	0.002
408.00	0.000	0.005	0.007	0.002	0.003	0.001	0.001	0.000	0.001	0.001	0.000	0.000	0.004	0.003	0.001	0.002
409.00	0.000	0.005	0.007	0.002	0.003	0.001	0.001	0.000	0.000	0.001	0.000	0.000	0.003	0.003	0.001	0.002
410.00	0.000	0.005	0.007	0.002	0.003	0.001	0.001	0.000	0.001	0.001	0.000	0.000	0.003	0.003	0.001	0.002
411.00	0.000	0.005	0.007	0.002	0.003	0.001	0.001	0.000	0.000	0.001	0.000	0.000	0.003	0.003	0.001	0.002
412.00	0.000	0.004	0.007	0.002	0.003	0.001	0.001	0.000	0.001	0.001	0.000	0.000	0.003	0.003	0.001	0.002
413.00	0.000	0.005	0.007	0.002	0.003	0.001	0.001	0.000	0.001	0.001	0.000	0.000	0.003	0.003	0.001	0.002
414.00	0.000	0.005	0.007	0.002	0.003	0.001	0.001	0.000	0.001	0.001	0.000	0.000	0.003	0.003	0.001	0.002
415.00	0.000	0.004	0.007	0.001	0.003	0.001	0.001	0.000	0.000	0.001	0.000	0.000	0.003	0.002	0.001	0.001
416.00	0.000	0.004	0.007	0.002	0.003	0.001	0.001	0.000	0.001	0.001	0.000	0.000	0.003	0.002	0.001	0.002
417.00	-0.000	0.004	0.007	0.001	0.002	0.001	0.001	-0.000	0.000	0.000	0.000	0.000	0.003	0.002	0.001	0.001
418.00	-0.000	0.004	0.007	0.001	0.002	0.001	0.001	-0.000	0.000	0.000	0.000	-0.000	0.003	0.002	0.001	0.001
419.00	0.000	0.004	0.007	0.001	0.002	0.001	0.001	-0.000	0.000	0.000	0.000	0.000	0.003	0.002	0.001	0.001
420.00	-0.000	0.004	0.007	0.001	0.002	0.001	0.001	-0.000	0.000	0.000	0.000	0.000	0.003	0.002	0.001	0.001
421.00	-0.000	0.004	0.006	0.001	0.002	0.001	0.001	-0.000	0.000	0.000	-0.000	-0.000	0.003	0.002	0.001	0.001
422.00	0.000	0.004	0.006	0.001	0.002	0.001	0.001	-0.000	0.000	0.000	-0.000	-0.000	0.003	0.002	0.000	0.001
423.00	0.000	0.004	0.006	0.001	0.002	0.001	0.001	-0.000	0.000	0.000	-0.000	-0.000	0.003	0.002	0.000	0.001
424.00	-0.000	0.004	0.006	0.001	0.002	0.001	0.001	-0.000	0.000	0.000	-0.000	-0.000	0.002	0.002	0.000	0.001
425.00	-0.000	0.004	0.006	0.001	0.002	0.001	0.001	-0.000	0.000	0.000	-0.000	-0.000	0.002	0.002	0.000	0.001
426.00	0.000	0.004	0.006	0.001	0.002	0.001	0.001	-0.000	-0.000	0.000	-0.000	-0.000	0.002	0.002	0.000	0.001
427.00	0.000	0.004	0.006	0.001	0.002	0.001	0.001	-0.000	0.000	0.000	-0.000	-0.000	0.002	0.002	0.000	0.001
428.00	0.000	0.004	0.006	0.001	0.002	0.001	0.001	-0.000	0.000	0.000	-0.000	-0.000	0.002	0.001	0.000	0.001
429.00	0.000	0.004	0.006	0.001	0.002	0.000	0.000	-0.001	-0.000	-0.000	-0.000	-0.000	0.002	0.001	0.000	0.001
430.00	-0.000	0.004	0.006	0.001	0.002	0.000	0.000	-0.001	-0.000	-0.000	-0.000	-0.000	0.002	0.001	0.000	0.001
431.00	-0.000	0.004	0.006	0.001	0.002	0.000	0.000	-0.001	-0.000	-0.000	-0.000	-0.000	0.002	0.001	0.000	0.001
432.00	-0.000	0.004	0.006	0.001	0.002	0.000	0.001	-0.001	-0.000	-0.000	-0.000	-0.000	0.002	0.001	0.000	0.001
433.00	-0.000	0.003	0.006	0.001	0.002	0.000	0.000	-0.001	-0.000	-0.000	-0.001	-0.000	0.002	0.001	0.000	0.001
434.00	-0.000	0.003	0.006	0.001	0.002	0.000	0.000	-0.001	-0.000	-0.000	-0.001	-0.000	0.002	0.001	0.000	0.001
435.00	0.000	0.003	0.006	0.001	0.002	0.000	0.000	-0.001	-0.000	-0.000	-0.001	-0.000	0.002	0.001	0.000	0.001
436.00	-0.000	0.003	0.006	0.001	0.002	0.000	0.000	-0.001	-0.000	-0.000	-0.001	-0.000	0.002	0.001	-0.000	0.001
437.00	-0.000	0.003	0.005	0.001	0.002	0.000	0.000	-0.001	-0.000	-0.000	-0.001	-0.000	0.002	0.001	-0.000	0.001
438.00	-0.000	0.003	0.005	0.001	0.002	0.000	0.000	-0.001	-0.000	-0.000	-0.001	-0.000	0.002	0.001	-0.000	0.000
439.00	-0.000	0.003	0.005	0.001	0.002	0.000	0.000	-0.001	-0.001	-0.000	-0.001	-0.001	0.002	0.001	-0.000	0.000
440.00	-0.000	0.003	0.005	0.001	0.002	0.000	0.000	-0.001	-0.000	-0.000	-0.001	-0.001	0.002	0.001	-0.000	0.000
441.00	-0.000	0.003	0.005	0.001	0.002	0.000	0.000	-0.001	-0.000	-0.000	-0.001	-0.001	0.002	0.001	-0.000	0.000
442.00	-0.000	0.003	0.005	0.001	0.002	0.000	0.000	-0.001	-0.000	-0.000	-0.001	-0.000	0.002	0.001	-0.000	0.000
443.00	0.000	0.003	0.005	0.001	0.002	0.000	0.000	-0.001	-0.000	-0.000	-0.001	-0.001	0.002	0.001	-0.000	0.000
444.00	-0.000	0.003	0.005	0.001	0.002	0.000	0.000	-0.001	-0.000	-0.000	-0.001	-0.000	0.002	0.001	-0.000	0.000
445.00	-0.000	0.003	0.005	0.001	0.002	0.000	0.000	-0.001	-0.000	-0.001	-0.001	-0.000	0.001	0.001	-0.000	0.000
446.00	-0.000	0.003	0.005	0.001	0.002	0.000	0.000	-0.001	-0.000	-0.001	-0.001	-0.001	0.001	0.001	-0.000	0.000
447.00	-0.000	0.003	0.005	0.001	0.001	0.000	0.000	-0.001	-0.000	-0.001	-0.001	-0.001	0.001	0.001	-0.000	0.000
448.00	-0.000	0.003	0.005	0.000	0.001	0.000	0.000	-0.001	-0.001	-0.001	-0.001	-0.001	0.001	0.000	-0.000	0.000
449.00	-0.000	0.003	0.005	0.000	0.001	0.000	0.000	-0.001	-0.001	-0.001	-0.001	-0.001	0.001	0.001	-0.001	0.000
450.00	-0.000	0.003	0.005	0.000	0.001	-0.000	-0.000	-0.001	-0.001	-0.001	-0.001	-0.001	0.001	0.000	-0.001	0.000
451.00	-0.000	0.003	0.005	0.000	0.001	-0.000	-0.000	-0.001	-0.001	-0.001	-0.001	-0.001	0.001	0.000	-0.001	0.000
452.00	-0.000	0.003	0.004	0.000	0.001	-0.000	-0.000	-0.001	-0.001	-0.001	-0.001	-0.001	0.001	0.000	-0.001	0.000
453.00	-0.000	0.003	0.004	0.000	0.001	0.000	0.000	-0.001	-0.001	-0.001	-0.001	-0.001	0.001	0.000	-0.001	0.000
454.00	0.000	0.003	0.004	0.000	0.001	0.000	0.000	-0.001	-0.000	-0.001	-0.001	-0.001	0.001	0.000	-0.000	0.000
455.00	-0.000	0.003	0.004	0.000	0.001	-0.000	-0.000	-0.001	-0.001	-0.001	-0.001	-0.001	0.001	0.000	-0.001	0.000
456.00	-0.000	0.003	0.004	0.000	0.001	-0.000	-0.000	-0.001	-0.001	-0.001	-0.001	-0.001	0.001	0.000	-0.001	0.000
457.00	-0.000	0.003	0.004	0.000	0.001	-0.000	-0.000	-0.001	-0.000	-0.001	-0.001	-0.001	0.001	0.000	-0.001	0.000
458.00	-0.000	0.003	0.004	0.000	0.001	-0.000	-0.000	-0.001	-0.001	-0.001	-0.001	-0.001	0.001	0.000	-0.001	-0.000
459.00	-0.000	0.003	0.004	0.000	0.001	-0.000	-0.000	-0.001	-0.001	-0.001	-0.001	-0.001	0.001	0.000	-0.001	-0.000
460.00	-0.000	0.003	0.004	0.000	0.001	-0.000	-0.000	-0.001	-0.001	-0.001	-0.001	-0.001	0.001	0.000	-0.001	-0.000
461.00	-0.000	0.003	0.004	0.000	0.001	-0.000	-0.000	-0.001	-0.001	-0.001	-0.001	-0.001	0.001	0.000	-0.001	-0.000
462.00	-0.000	0.003	0.004	0.000	0.001	-0.000	-0.000	-0.001	-0.000	-0.001	-0.001	-0.001	0.001	0.000	-0.001	-0.000
463.00	0.000	0.003	0.004	0.000	0.001	-0.000	-0.000	-0.001	-0.001	-0.001	-0.001	-0.001	0.001	0.000	-0.001	-0.000
464.00	-0.000	0.003	0.004	0.000	0.001	-0.000	-0.000	-0.001	-0.001	-0.001	-0.001	-0.001	0.001	0.000	-0.001	-0.000
465.00	-0.000	0.003	0.004	0.000	0.001	-0.000	-0.000	-0.001	-0.001	-0.001	-0.001	-0.001	0.001	0.000	-0.001	-0.000
466.00	-0.000	0.003	0.004	0.000	0.001	-0.000	-0.000	-0.001	-0.001	-0.001	-0.001	-0.001	0.001	0.000	-0.001	-0.000
467.00	-0.000	0.003	0.004	0.000	0.001	-0.000	-0.000	-0.001	-0.001	-0.001	-0.001	-0.001	0.001	-0.000	-0.001	-0.000
468.00	0.000	0.003	0.004	0.000	0.001	-0.000	-0.000	-0.001	-0.001	-0.001	-0.001	-0.001	0.001	-0.000	-0.001	-0.000
469.00	-0.000	0.003	0.004	0.000	0.001	-0.000	-0.000	-0.001	-0.001	-0.001	-0.001	-0.001	0.001	-0.000	-0.001	-0.000
470.00	-0.000	0.002	0.004	0.000	0.001	-0.000	-0.000	-0.001	-0.001	-0.001	-0.001	-0.001	0.001	-0.000	-0.001	-0.000
471.00	-0.000	0.002	0.004	0.000	0.001	-0.000	-0.000	-0.001	-0.001	-0.001	-0.001	-0.001	0.001	-0.000	-0.001	-0.000
472.00	-0.000	0.002	0.004	0.000	0.001	-0.000	-0.000	-0.001	-0.001	-0.001	-0.001	-0.001	0.001	-0.000	-0.001	-0.000
473.00	-0.000	0.003	0.004	0.000	0.001	-0.000	-0.000	-0.001	-0.001	-0.001	-0.001	-0.001	0.001	-0.000	-0.001	-0.000
474.00	0.000	0.003	0.004	0.000	0.001	-0.000	-0.000	-0.001	-0.001	-0.001	-0.001	-0.001	0.001	-0.000	-0.001	-0.000
475.00	-0.000	0.002	0.004	0.000	0.001	-0.000	-0.000	-0.001	-0.001	-0.001	-0.001	-0.001	0.001	-0.000	-0.001	-0.000
476.00	-0.000	0.002	0.004	0.000	0.001	-0.000	-0.000	-0.001	-0.001	-0.001	-0.001	-0.001	0.001	-0.000	-0.001	-0.000
477.00	-0.000	0.002	0.004	-0.000	0.001	-0.000	-0.000	-0.001	-0.001	-0.001	-0.001	-0.001	0.001	-0.000	-0.001	-0.000
478.00	-0.000	0.002	0.003	-0.000	0.001	-0.000	-0.000	-0.001	-0.001	-0.001	-0.001	-0.001	0.001	-0.000	-0.001	-0.000
479.00	-0.000	0.002	0.003	-0.000	0.001	-0.000	-0.000	-0.001	-0.001	-0.001	-0.001	-0.001	0.001	-0.000	-0.001	-0.000
480.00	-0.000	0.002	0.003	-0.000	0.001	-0.000	-0.000	-0.001	-0.001	-0.001	-0.001	-0.001	0.001	-0.000	-0.001	-0.000
481.00	-0.000	0.002	0.003	-0.000	0.001	-0.000	-0.000	-0.001	-0.001	-0.001	-0.001	-0.001	0.001	-0.000	-0.001	-0.000
482.00	-0.000	0.002	0.003	-0.000	0.001	-0.000	-0.001	-0.002	-0.001	-0.001	-0.001	-0.001	0.000	-0.000	-0.001	-0.000
483.00	-0.000	0.002	0.003	-0.000	0.001	-0.000	-0.001	-0.002	-0.001	-0.001	-0.001	-0.001	0.000	-0.000	-0.001	-0.001
484.00	-0.000	0.002	0.003	-0.000	0.001	-0.000	-0.001	-0.002	-0.001	-0.001	-0.002	-0.001	0.000	-0.000	-0.001	-0.001
485.00	-0.000	0.002	0.003	-0.000	0.001	-0.000	-0.001	-0.002	-0.001	-0.001	-0.002	-0.001	0.000	-0.000	-0.001	-0.001
486.00	-0.000	0.002	0.003	-0.000	0.001	-0.000	-0.001	-0.002	-0.001	-0.001	-0.002	-0.001	0.000	-0.000	-0.001	-0.001
487.00	-0.000	0.002	0.003	-0.000	0.001	-0.000	-0.001	-0.002	-0.001	-0.001	-0.002	-0.001	0.000	-0.001	-0.001	-0.001
488.00	-0.000	0.002	0.003	-0.000	0.001	-0.001	-0.001	-0.002	-0.001	-0.001	-0.002	-0.001	0.000	-0.001	-0.001	-0.001
489.00	-0.000	0.002	0.003	-0.000	0.001	-0.000	-0.001	-0.002	-0.001	-0.001	-0.002	-0.001	0.000	-0.001	-0.001	-0.001
490.00	-0.000	0.002	0.003	-0.000	0.001	-0.000	-0.001	-0.001	-0.001	-0.001	-0.001	-0.001	0.000	-0.001	-0.001	-0.001
491.00	-0.000	0.002	0.003	-0.000	0.001	-0.000	-0.001	-0.002	-0.001	-0.001	-0.001	-0.001	0.000	-0.001	-0.001	-0.001
492.00	0.000	0.002	0.003	-0.000	0.001	-0.000	-0.001	-0.002	-0.001	-0.001	-0.001	-0.001	0.000	-0.001	-0.001	-0.001
493.00	-0.000	0.002	0.003	-0.000	0.001	-0.000	-0.001	-0.001	-0.001	-0.001	-0.001	-0.001	0.000	-0.001	-0.001	-0.001
494.00	-0.000	0.002	0.003	-0.000	0.001	-0.000	-0.001	-0.001	-0.001	-0.001	-0.001	-0.001	0.000	-0.001	-0.001	-0.001
495.00	-0.000	0.002	0.003	-0.000	0.001	-0.000	-0.001	-0.001	-0.001	-0.001	-0.001	-0.001	0.000	-0.001	-0.001	-0.001
496.00	-0.000	0.002	0.003	-0.000	0.001	-0.000	-0.001	-0.001	-0.001	-0.001	-0.001	-0.001	0.000	-0.001	-0.001	-0.001
497.00	-0.000	0.002	0.003	-0.000	0.001	-0.000	-0.001	-0.001	-0.001	-0.001	-0.001	-0.001	0.000	-0.001	-0.001	-0.001
498.00	-0.000	0.002	0.003	-0.000	0.001	-0.000	-0.001	-0.001	-0.001	-0.001	-0.001	-0.001	0.000	-0.001	-0.001	-0.001
499.00	-0.000	0.002	0.003	-0.000	0.000	-0.001	-0.001	-0.002	-0.001	-0.001	-0.002	-0.001	0.000	-0.001	-0.001	-0.001
500.00	-0.000	0.002	0.003	-0.000	0.000	-0.000	-0.001	-0.001	-0.001	-0.001	-0.001	-0.001	0.000	-0.001	-0.001	-0.001
501.00	0.000	0.002	0.003	-0.000	0.001	-0.000	-0.001	-0.001	-0.001	-0.001	-0.001	-0.001	0.000	-0.001	-0.001	-0.001
502.00	-0.000	0.002	0.003	-0.000	0.000	-0.000	-0.001	-0.001	-0.001	-0.001	-0.001	-0.001	0.000	-0.001	-0.001	-0.001
503.00	0.000	0.002	0.003	-0.000	0.001	-0.000	-0.001	-0.001	-0.001	-0.001	-0.001	-0.001	0.000	-0.001	-0.001	-0.001
504.00	0.000	0.002	0.003	-0.000	0.001	-0.000	-0.001	-0.001	-0.001	-0.001	-0.001	-0.001	0.000	-0.001	-0.001	-0.001
505.00	-0.000	0.002	0.003	-0.000	0.000	-0.000	-0.001	-0.001	-0.001	-0.001	-0.001	-0.001	0.000	-0.001	-0.001	-0.001
506.00	-0.000	0.002	0.003	-0.000	0.001	-0.000	-0.001	-0.001	-0.001	-0.001	-0.001	-0.001	0.000	-0.001	-0.001	-0.001
507.00	-0.000	0.002	0.003	-0.000	0.001	-0.000	-0.001	-0.001	-0.001	-0.001	-0.001	-0.001	0.000	-0.001	-0.001	-0.001
508.00	-0.000	0.002	0.003	-0.000	0.000	-0.001	-0.001	-0.001	-0.001	-0.001	-0.002	-0.001	0.000	-0.001	-0.001	-0.001
509.00	-0.000	0.002	0.003	-0.000	0.000	-0.000	-0.001	-0.001	-0.001	-0.001	-0.001	-0.001	0.000	-0.001	-0.001	-0.001
510.00	-0.000	0.002	0.003	-0.000	0.000	-0.000	-0.001	-0.001	-0.001	-0.001	-0.001	-0.001	0.000	-0.001	-0.001	-0.001
511.00	-0.000	0.002	0.003	-0.000	0.000	-0.001	-0.001	-0.001	-0.001	-0.001	-0.001	-0.001	0.000	-0.001	-0.001	-0.001
512.00	-0.000	0.002	0.003	-0.000	0.000	-0.000	-0.001	-0.001	-0.001	-0.001	-0.001	-0.001	0.000	-0.001	-0.001	-0.001
513.00	-0.000	0.002	0.003	-0.000	0.000	-0.000	-0.001	-0.001	-0.001	-0.001	-0.001	-0.001	0.000	-0.001	-0.001	-0.001
514.00	0.000	0.002	0.003	-0.000	0.000	-0.000	-0.001	-0.001	-0.001	-0.001	-0.001	-0.001	0.000	-0.001	-0.001	-0.001
515.00	-0.000	0.002	0.003	-0.000	0.000	-0.000	-0.001	-0.001	-0.001	-0.001	-0.001	-0.001	0.000	-0.001	-0.001	-0.001
516.00	-0.000	0.002	0.003	-0.000	0.000	-0.001	-0.001	-0.001	-0.001	-0.002	-0.001	-0.001	0.000	-0.001	-0.001	-0.001
517.00	-0.000	0.002	0.003	-0.000	0.000	-0.000	-0.001	-0.001	-0.001	-0.001	-0.001	-0.001	0.000	-0.001	-0.001	-0.001
518.00	-0.000	0.002	0.003	-0.000	0.000	-0.001	-0.001	-0.001	-0.001	-0.002	-0.002	-0.001	0.000	-0.001	-0.001	-0.001
519.00	-0.000	0.002	0.003	-0.000	0.000	-0.001	-0.001	-0.001	-0.001	-0.001	-0.001	-0.001	0.000	-0.001	-0.001	-0.001
520.00	-0.000	0.002	0.003	-0.000	0.000	-0.001	-0.001	-0.001	-0.001	-0.002	-0.001	-0.001	0.000	-0.001	-0.001	-0.001
521.00	-0.000	0.002	0.003	-0.000	0.000	-0.001	-0.001	-0.002	-0.001	-0.002	-0.002	-0.001	-0.000	-0.001	-0.001	-0.001
522.00	-0.000	0.002	0.002	-0.000	0.000	-0.001	-0.001	-0.002	-0.001	-0.002	-0.002	-0.001	-0.000	-0.001	-0.001	-0.001
523.00	-0.000	0.002	0.002	-0.000	0.000	-0.001	-0.001	-0.002	-0.001	-0.002	-0.002	-0.001	-0.000	-0.001	-0.002	-0.001
524.00	-0.000	0.002	0.002	-0.000	0.000	-0.001	-0.001	-0.002	-0.001	-0.002	-0.002	-0.001	-0.000	-0.001	-0.002	-0.001
525.00	-0.000	0.002	0.002	-0.000	0.000	-0.000	-0.001	-0.002	-0.001	-0.002	-0.001	-0.001	-0.000	-0.001	-0.001	-0.001
526.00	-0.000	0.002	0.002	-0.000	0.000	-0.000	-0.001	-0.001	-0.001	-0.001	-0.001	-0.001	0.000	-0.001	-0.001	-0.001
527.00	-0.000	0.002	0.002	-0.000	0.000	-0.001	-0.001	-0.002	-0.001	-0.002	-0.001	-0.001	-0.000	-0.001	-0.002	-0.001
528.00	-0.000	0.002	0.002	-0.000	0.000	-0.001	-0.001	-0.002	-0.001	-0.002	-0.002	-0.001	0.000	-0.001	-0.002	-0.001
529.00	-0.000	0.002	0.002	-0.000	0.000	-0.001	-0.001	-0.002	-0.001	-0.002	-0.002	-0.001	0.000	-0.001	-0.002	-0.001
530.00	-0.000	0.002	0.002	-0.000	0.000	-0.001	-0.001	-0.002	-0.001	-0.002	-0.002	-0.001	-0.000	-0.001	-0.002	-0.001
531.00	-0.000	0.002	0.002	-0.001	0.000	-0.001	-0.001	-0.002	-0.001	-0.002	-0.002	-0.001	-0.000	-0.001	-0.002	-0.001
532.00	-0.000	0.002	0.002	-0.001	0.000	-0.001	-0.001	-0.002	-0.001	-0.002	-0.002	-0.001	-0.000	-0.001	-0.002	-0.001
533.00	-0.000	0.002	0.002	-0.001	0.000	-0.001	-0.001	-0.002	-0.001	-0.002	-0.002	-0.001	-0.000	-0.001	-0.002	-0.001
534.00	-0.000	0.002	0.002	-0.001	0.000	-0.001	-0.001	-0.002	-0.001	-0.002	-0.002	-0.001	-0.000	-0.001	-0.002	-0.001
535.00	0.000	0.002	0.003	-0.000	0.000	-0.000	-0.001	-0.001	-0.001	-0.001	-0.001	-0.001	0.000	-0.001	-0.001	-0.001
536.00	0.001	0.003	0.003	0.001	0.001	0.001	0.000	-0.000	0.000	-0.000	-0.000	-0.000	0.001	0.000	-0.000	0.000
537.00	0.000	0.002	0.002	-0.000	0.000	-0.000	-0.001	-0.001	-0.001	-0.001	-0.001	-0.001	0.000	-0.001	-0.001	-0.001
538.00	-0.000	0.002	0.002	-0.000	0.000	-0.001	-0.001	-0.002	-0.001	-0.002	-0.002	-0.001	-0.000	-0.001	-0.002	-0.001
539.00	-0.000	0.002	0.002	-0.000	0.000	-0.001	-0.001	-0.002	-0.001	-0.002	-0.002	-0.001	-0.000	-0.001	-0.002	-0.001
540.00	-0.000	0.002	0.002	-0.000	0.000	-0.001	-0.001	-0.002	-0.001	-0.002	-0.002	-0.001	-0.000	-0.001	-0.002	-0.001
541.00	-0.000	0.002	0.002	-0.000	0.000	-0.001	-0.001	-0.002	-0.001	-0.002	-0.002	-0.001	-0.000	-0.001	-0.002	-0.001
542.00	-0.000	0.002	0.002	-0.001	0.000	-0.001	-0.001	-0.002	-0.001	-0.002	-0.002	-0.001	-0.000	-0.001	-0.002	-0.001
543.00	-0.000	0.002	0.002	-0.001	0.000	-0.001	-0.001	-0.002	-0.001	-0.002	-0.002	-0.001	-0.000	-0.001	-0.002	-0.001
544.00	-0.000	0.002	0.002	-0.001	0.000	-0.001	-0.001	-0.002	-0.001	-0.002	-0.002	-0.001	-0.000	-0.001	-0.002	-0.001
545.00	-0.000	0.002	0.002	-0.000	0.000	-0.001	-0.001	-0.002	-0.001	-0.002	-0.002	-0.001	-0.000	-0.001	-0.002	-0.001
546.00	-0.000	0.002	0.002	-0.001	0.000	-0.001	-0.001	-0.002	-0.001	-0.002	-0.002	-0.001	-0.000	-0.001	-0.002	-0.001
547.00	-0.000	0.002	0.002	-0.001	0.000	-0.001	-0.001	-0.002	-0.001	-0.002	-0.002	-0.001	-0.000	-0.001	-0.002	-0.001
548.00	-0.000	0.002	0.002	-0.001	0.000	-0.001	-0.001	-0.002	-0.001	-0.002	-0.002	-0.001	-0.000	-0.001	-0.002	-0.001
549.00	-0.000	0.002	0.002	-0.001	0.000	-0.001	-0.001	-0.002	-0.001	-0.002	-0.002	-0.001	-0.000	-0.001	-0.002	-0.001
550.00	-0.000	0.002	0.002	-0.001	0.000	-0.001	-0.001	-0.002	-0.001	-0.002	-0.002	-0.001	-0.000	-0.001	-0.002	-0.001
551.00	-0.000	0.002	0.002	-0.001	0.000	-0.001	-0.001	-0.002	-0.001	-0.002	-0.002	-0.001	-0.000	-0.001	-0.002	-0.001
552.00	-0.000	0.002	0.002	-0.001	0.000	-0.001	-0.001	-0.002	-0.001	-0.002	-0.002	-0.001	-0.000	-0.001	-0.002	-0.001
553.00	-0.000	0.002	0.002	-0.001	0.000	-0.001	-0.001	-0.002	-0.001	-0.002	-0.002	-0.001	-0.000	-0.001	-0.002	-0.001
554.00	-0.000	0.001	0.002	-0.001	0.000	-0.001	-0.001	-0.002	-0.001	-0.002	-0.002	-0.001	-0.000	-0.001	-0.002	-0.001
555.00	-0.000	0.002	0.002	-0.001	0.000	-0.001	-0.001	-0.002	-0.001	-0.002	-0.002	-0.001	-0.000	-0.001	-0.002	-0.001
556.00	-0.000	0.001	0.002	-0.001	-0.000	-0.001	-0.001	-0.002	-0.001	-0.002	-0.002	-0.001	-0.000	-0.001	-0.002	-0.001
557.00	-0.000	0.002	0.002	-0.001	0.000	-0.001	-0.001	-0.002	-0.001	-0.002	-0.002	-0.001	-0.000	-0.001	-0.002	-0.001
558.00	-0.000	0.002	0.002	-0.001	0.000	-0.001	-0.001	-0.002	-0.001	-0.002	-0.002	-0.001	-0.000	-0.001	-0.002	-0.001
559.00	-0.000	0.002	0.002	-0.001	0.000	-0.001	-0.001	-0.002	-0.001	-0.002	-0.002	-0.001	-0.000	-0.001	-0.002	-0.001
560.00	-0.000	0.002	0.002	-0.001	0.000	-0.001	-0.001	-0.002	-0.001	-0.002	-0.002	-0.001	-0.000	-0.001	-0.002	-0.001
561.00	-0.000	0.002	0.002	-0.001	0.000	-0.001	-0.001	-0.002	-0.001	-0.002	-0.002	-0.001	-0.000	-0.001	-0.002	-0.001
562.00	-0.000	0.001	0.002	-0.001	-0.000	-0.001	-0.001	-0.002	-0.001	-0.002	-0.002	-0.001	-0.000	-0.001	-0.002	-0.001
563.00	-0.000	0.001	0.002	-0.001	-0.000	-0.001	-0.001	-0.002	-0.001	-0.002	-0.002	-0.001	-0.000	-0.001	-0.002	-0.001
564.00	-0.000	0.002	0.002	-0.001	0.000	-0.001	-0.001	-0.002	-0.001	-0.002	-0.002	-0.001	-0.000	-0.001	-0.002	-0.001
565.00	-0.000	0.001	0.002	-0.001	-0.000	-0.001	-0.001	-0.002	-0.001	-0.002	-0.002	-0.001	-0.000	-0.001	-0.002	-0.001
566.00	-0.000	0.002	0.002	-0.001	0.000	-0.001	-0.001	-0.002	-0.001	-0.002	-0.002	-0.001	-0.000	-0.001	-0.002	-0.001
567.00	-0.000	0.002	0.002	-0.001	0.000	-0.001	-0.001	-0.002	-0.001	-0.002	-0.002	-0.001	-0.000	-0.001	-0.002	-0.001
568.00	0.000	0.002	0.002	-0.001	0.000	-0.001	-0.001	-0.002	-0.001	-0.002	-0.002	-0.001	-0.000	-0.001	-0.002	-0.001
569.00	-0.000	0.001	0.002	-0.001	-0.000	-0.001	-0.001	-0.002	-0.001	-0.002	-0.002	-0.001	-0.000	-0.001	-0.002	-0.001
570.00	-0.000	0.001	0.002	-0.001	-0.000	-0.001	-0.001	-0.002	-0.001	-0.002	-0.002	-0.001	-0.000	-0.001	-0.002	-0.001
571.00	-0.000	0.002	0.002	-0.001	-0.000	-0.001	-0.001	-0.002	-0.001	-0.002	-0.002	-0.001	-0.000	-0.001	-0.002	-0.001
572.00	-0.000	0.002	0.002	-0.001	-0.000	-0.001	-0.001	-0.002	-0.001	-0.002	-0.002	-0.001	-0.000	-0.001	-0.002	-0.001
573.00	-0.000	0.001	0.002	-0.001	-0.000	-0.001	-0.001	-0.002	-0.001	-0.002	-0.002	-0.001	-0.000	-0.001	-0.002	-0.001
574.00	-0.000	0.001	0.002	-0.001	-0.000	-0.001	-0.001	-0.002	-0.001	-0.002	-0.002	-0.001	-0.000	-0.001	-0.002	-0.001
575.00	-0.000	0.002	0.002	-0.001	-0.000	-0.001	-0.001	-0.002	-0.001	-0.002	-0.002	-0.001	-0.000	-0.001	-0.002	-0.001
576.00	-0.000	0.002	0.002	-0.001	0.000	-0.001	-0.001	-0.002	-0.001	-0.002	-0.002	-0.001	-0.000	-0.001	-0.002	-0.001
577.00	-0.000	0.001	0.002	-0.001	-0.000	-0.001	-0.001	-0.002	-0.001	-0.002	-0.002	-0.001	-0.000	-0.001	-0.002	-0.001
578.00	-0.000	0.002	0.002	-0.001	-0.000	-0.001	-0.001	-0.002	-0.001	-0.002	-0.001	-0.001	-0.000	-0.001	-0.002	-0.001
579.00	-0.000	0.002	0.002	-0.001	-0.000	-0.001	-0.001	-0.002	-0.001	-0.002	-0.002	-0.001	-0.000	-0.001	-0.002	-0.001
580.00	-0.000	0.002	0.002	-0.001	-0.000	-0.001	-0.001	-0.002	-0.001	-0.002	-0.002	-0.001	-0.000	-0.001	-0.002	-0.001
581.00	-0.000	0.001	0.002	-0.001	-0.000	-0.001	-0.001	-0.002	-0.001	-0.002	-0.002	-0.001	-0.000	-0.001	-0.002	-0.001
582.00	-0.000	0.001	0.002	-0.001	-0.000	-0.001	-0.001	-0.002	-0.001	-0.002	-0.002	-0.001	-0.000	-0.001	-0.002	-0.001
583.00	-0.000	0.001	0.002	-0.001	-0.000	-0.001	-0.001	-0.002	-0.001	-0.002	-0.002	-0.001	-0.000	-0.001	-0.002	-0.001
584.00	-0.000	0.001	0.002	-0.001	-0.000	-0.001	-0.001	-0.002	-0.001	-0.002	-0.002	-0.001	-0.000	-0.001	-0.002	-0.001
585.00	-0.000	0.001	0.002	-0.001	-0.000	-0.001	-0.001	-0.002	-0.001	-0.002	-0.002	-0.001	-0.000	-0.001	-0.002	-0.001
586.00	-0.000	0.001	0.002	-0.001	-0.000	-0.001	-0.001	-0.002	-0.001	-0.002	-0.002	-0.001	-0.000	-0.001	-0.002	-0.001
587.00	-0.000	0.002	0.002	-0.001	-0.000	-0.001	-0.001	-0.002	-0.001	-0.002	-0.002	-0.001	-0.000	-0.001	-0.002	-0.001
588.00	-0.000	0.001	0.002	-0.001	-0.000	-0.001	-0.001	-0.002	-0.001	-0.002	-0.002	-0.001	-0.000	-0.001	-0.002	-0.001
589.00	-0.000	0.001	0.002	-0.001	-0.000	-0.001	-0.001	-0.002	-0.001	-0.002	-0.002	-0.001	-0.000	-0.001	-0.002	-0.001
590.00	-0.000	0.001	0.001	-0.001	-0.000	-0.001	-0.001	-0.002	-0.001	-0.002	-0.002	-0.001	-0.000	-0.001	-0.002	-0.001
591.00	-0.000	0.001	0.002	-0.001	-0.000	-0.001	-0.001	-0.002	-0.001	-0.002	-0.002	-0.001	-0.000	-0.001	-0.002	-0.001
592.00	0.000	0.002	0.002	-0.001	-0.000	-0.001	-0.001	-0.002	-0.001	-0.002	-0.002	-0.001	-0.000	-0.001	-0.002	-0.001
593.00	-0.000	0.001	0.002	-0.001	-0.000	-0.001	-0.001	-0.002	-0.001	-0.002	-0.002	-0.001	-0.000	-0.001	-0.002	-0.001
594.00	-0.000	0.001	0.001	-0.001	-0.000	-0.001	-0.001	-0.002	-0.001	-0.002	-0.002	-0.001	-0.000	-0.001	-0.002	-0.001
595.00	-0.000	0.001	0.001	-0.001	-0.000	-0.001	-0.001	-0.002	-0.001	-0.002	-0.002	-0.001	-0.000	-0.001	-0.002	-0.001
596.00	-0.000	0.001	0.001	-0.001	-0.000	-0.001	-0.001	-0.002	-0.001	-0.002	-0.002	-0.001	-0.000	-0.001	-0.002	-0.001
597.00	-0.000	0.001	0.001	-0.001	-0.000	-0.001	-0.001	-0.002	-0.001	-0.002	-0.002	-0.001	-0.000	-0.001	-0.002	-0.001
598.00	-0.000	0.001	0.001	-0.001	-0.000	-0.001	-0.001	-0.002	-0.001	-0.002	-0.002	-0.001	-0.000	-0.001	-0.002	-0.001
599.00	-0.000	0.001	0.001	-0.001	-0.000	-0.001	-0.001	-0.002	-0.001	-0.002	-0.002	-0.001	-0.000	-0.001	-0.002	-0.001
600.00	-0.000	0.001	0.001	-0.001	-0.000	-0.001	-0.001	-0.002	-0.001	-0.002	-0.002	-0.001	-0.000	-0.001	-0.002	-0.001
601.00	-0.000	0.001	0.001	-0.001	-0.000	-0.001	-0.001	-0.002	-0.001	-0.002	-0.002	-0.001	-0.000	-0.001	-0.002	-0.001
602.00	-0.000	0.001	0.001	-0.001	-0.000	-0.001	-0.001	-0.002	-0.001	-0.002	-0.002	-0.001	-0.000	-0.001	-0.002	-0.001
603.00	-0.000	0.001	0.001	-0.001	-0.000	-0.001	-0.001	-0.002	-0.001	-0.002	-0.002	-0.001	-0.000	-0.001	-0.002	-0.001
604.00	-0.000	0.001	0.001	-0.001	-0.000	-0.001	-0.001	-0.002	-0.001	-0.002	-0.002	-0.001	-0.000	-0.001	-0.002	-0.001
605.00	-0.000	0.001	0.001	-0.001	-0.000	-0.001	-0.001	-0.002	-0.001	-0.002	-0.002	-0.001	-0.000	-0.001	-0.002	-0.001
606.00	-0.000	0.001	0.001	-0.001	-0.000	-0.001	-0.001	-0.002	-0.001	-0.002	-0.002	-0.001	-0.000	-0.001	-0.002	-0.001
607.00	-0.000	0.001	0.001	-0.001	-0.000	-0.001	-0.001	-0.002	-0.001	-0.002	-0.002	-0.001	-0.000	-0.001	-0.002	-0.001
608.00	-0.000	0.001	0.001	-0.001	-0.000	-0.001	-0.001	-0.002	-0.001	-0.002	-0.002	-0.001	-0.000	-0.001	-0.002	-0.001
609.00	-0.000	0.001	0.001	-0.001	-0.000	-0.001	-0.001	-0.002	-0.001	-0.002	-0.002	-0.001	-0.000	-0.001	-0.002	-0.001
610.00	-0.000	0.001	0.001	-0.001	-0.000	-0.001	-0.001	-0.002	-0.001	-0.002	-0.002	-0.001	-0.000	-0.001	-0.002	-0.001
611.00	-0.000	0.001	0.001	-0.001	-0.000	-0.001	-0.001	-0.002	-0.001	-0.002	-0.002	-0.001	-0.000	-0.001	-0.002	-0.001
612.00	-0.000	0.001	0.001	-0.001	-0.000	-0.001	-0.001	-0.002	-0.001	-0.002	-0.002	-0.001	-0.000	-0.001	-0.002	-0.001
613.00	-0.000	0.001	0.001	-0.001	-0.000	-0.001	-0.001	-0.002	-0.001	-0.002	-0.002	-0.001	-0.000	-0.001	-0.002	-0.001
614.00	-0.000	0.001	0.001	-0.001	-0.000	-0.001	-0.001	-0.002	-0.001	-0.002	-0.002	-0.001	-0.000	-0.001	-0.002	-0.001
615.00	-0.000	0.001	0.001	-0.001	-0.000	-0.001	-0.001	-0.002	-0.001	-0.002	-0.002	-0.001	-0.000	-0.001	-0.002	-0.001
616.00	-0.000	0.001	0.001	-0.001	-0.000	-0.001	-0.001	-0.002	-0.001	-0.002	-0.002	-0.001	-0.000	-0.001	-0.002	-0.001
617.00	-0.000	0.001	0.001	-0.001	-0.000	-0.001	-0.001	-0.002	-0.001	-0.002	-0.002	-0.001	-0.000	-0.001	-0.002	-0.001
618.00	-0.000	0.001	0.001	-0.001	-0.000	-0.001	-0.001	-0.002	-0.001	-0.002	-0.002	-0.001	-0.000	-0.001	-0.002	-0.001
619.00	-0.000	0.001	0.001	-0.001	-0.000	-0.001	-0.001	-0.002	-0.001	-0.002	-0.002	-0.001	-0.000	-0.001	-0.002	-0.001
620.00	-0.000	0.001	0.001	-0.001	-0.000	-0.001	-0.001	-0.002	-0.001	-0.002	-0.002	-0.001	-0.000	-0.001	-0.002	-0.001
621.00	-0.000	0.001	0.001	-0.001	-0.000	-0.001	-0.001	-0.002	-0.001	-0.002	-0.002	-0.001	-0.000	-0.001	-0.002	-0.001
622.00	-0.000	0.001	0.001	-0.001	-0.000	-0.001	-0.001	-0.002	-0.001	-0.002	-0.002	-0.001	-0.000	-0.001	-0.002	-0.001
623.00	-0.000	0.001	0.001	-0.001	-0.000	-0.001	-0.001	-0.002	-0.001	-0.002	-0.002	-0.001	-0.000	-0.001	-0.002	-0.001
624.00	-0.000	0.001	0.001	-0.001	-0.000	-0.001	-0.001	-0.002	-0.001	-0.002	-0.002	-0.001	-0.000	-0.001	-0.002	-0.001
625.00	-0.000	0.001	0.001	-0.001	-0.000	-0.001	-0.001	-0.002	-0.001	-0.002	-0.002	-0.001	-0.000	-0.001	-0.002	-0.001
626.00	-0.000	0.001	0.001	-0.001	-0.000	-0.001	-0.001	-0.002	-0.001	-0.002	-0.002	-0.001	-0.000	-0.001	-0.002	-0.001
627.00	-0.000	0.001	0.001	-0.001	-0.000	-0.001	-0.001	-0.002	-0.001	-0.002	-0.002	-0.001	-0.000	-0.001	-0.002	-0.001
628.00	-0.000	0.001	0.001	-0.001	-0.000	-0.001	-0.001	-0.002	-0.001	-0.002	-0.002	-0.001	-0.000	-0.001	-0.002	-0.001
629.00	-0.000	0.001	0.001	-0.001	-0.000	-0.001	-0.001	-0.002	-0.001	-0.002	-0.002	-0.001	-0.000	-0.001	-0.002	-0.001
630.00	-0.000	0.001	0.001	-0.001	-0.000	-0.001	-0.001	-0.002	-0.001	-0.002	-0.002	-0.001	-0.000	-0.001	-0.002	-0.001
631.00	-0.000	0.001	0.001	-0.001	-0.000	-0.001	-0.001	-0.002	-0.001	-0.002	-0.002	-0.001	-0.000	-0.001	-0.002	-0.001
632.00	-0.000	0.001	0.001	-0.001	-0.000	-0.001	-0.001	-0.002	-0.001	-0.002	-0.002	-0.001	-0.000	-0.001	-0.002	-0.001
633.00	-0.000	0.001	0.001	-0.001	-0.000	-0.001	-0.001	-0.002	-0.001	-0.002	-0.002	-0.001	-0.000	-0.001	-0.002	-0.001
634.00	-0.000	0.001	0.001	-0.001	-0.000	-0.001	-0.001	-0.002	-0.001	-0.002	-0.002	-0.001	-0.000	-0.001	-0.002	-0.001
635.00	-0.000	0.001	0.001	-0.001	-0.000	-0.001	-0.001	-0.002	-0.001	-0.002	-0.002	-0.001	-0.000	-0.001	-0.002	-0.001
636.00	-0.000	0.001	0.001	-0.001	-0.000	-0.001	-0.001	-0.002	-0.001	-0.002	-0.002	-0.001	-0.000	-0.001	-0.002	-0.001
637.00	-0.000	0.001	0.001	-0.001	-0.000	-0.001	-0.001	-0.002	-0.001	-0.002	-0.002	-0.001	-0.000	-0.001	-0.002	-0.001
638.00	-0.000	0.001	0.001	-0.001	-0.000	-0.001	-0.001	-0.002	-0.001	-0.002	-0.002	-0.001	-0.000	-0.001	-0.002	-0.001
639.00	-0.000	0.001	0.001	-0.001	-0.000	-0.001	-0.001	-0.002	-0.001	-0.002	-0.002	-0.001	-0.000	-0.001	-0.002	-0.001
640.00	-0.000	0.001	0.001	-0.001	-0.000	-0.001	-0.001	-0.002	-0.001	-0.002	-0.002	-0.001	-0.000	-0.001	-0.002	-0.001
641.00	-0.000	0.001	0.001	-0.001	-0.000	-0.001	-0.001	-0.002	-0.001	-0.002	-0.002	-0.001	-0.000	-0.001	-0.002	-0.001
642.00	-0.000	0.001	0.001	-0.001	-0.000	-0.001	-0.001	-0.002	-0.001	-0.002	-0.002	-0.001	-0.000	-0.001	-0.002	-0.001
643.00	-0.000	0.001	0.001	-0.001	-0.000	-0.001	-0.001	-0.002	-0.001	-0.002	-0.002	-0.001	-0.000	-0.001	-0.002	-0.001
644.00	-0.000	0.001	0.001	-0.001	-0.000	-0.001	-0.001	-0.002	-0.001	-0.002	-0.002	-0.001	-0.000	-0.001	-0.002	-0.001
645.00	-0.000	0.001	0.001	-0.001	-0.000	-0.001	-0.001	-0.002	-0.001	-0.002	-0.002	-0.001	-0.000	-0.001	-0.002	-0.001
646.00	-0.000	0.001	0.001	-0.001	-0.000	-0.001	-0.001	-0.002	-0.001	-0.002	-0.002	-0.001	-0.000	-0.001	-0.002	-0.001
647.00	-0.000	0.001	0.001	-0.001	-0.000	-0.001	-0.001	-0.002	-0.001	-0.002	-0.002	-0.001	-0.000	-0.001	-0.002	-0.001
648.00	-0.000	0.001	0.001	-0.001	-0.000	-0.001	-0.001	-0.002	-0.001	-0.002	-0.002	-0.001	-0.000	-0.001	-0.002	-0.001
649.00	-0.000	0.001	0.001	-0.001	-0.000	-0.001	-0.001	-0.002	-0.001	-0.002	-0.002	-0.001	-0.000	-0.001	-0.002	-0.001
650.00	-0.000	0.001	0.001	-0.001	-0.000	-0.001	-0.001	-0.002	-0.001	-0.002	-0.002	-0.001	-0.000	-0.001	-0.002	-0.001
651.00	-0.000	0.001	0.001	-0.001	-0.000	-0.001	-0.001	-0.002	-0.001	-0.002	-0.002	-0.001	-0.000	-0.001	-0.002	-0.001
652.00	-0.000	0.001	0.001	-0.001	-0.000	-0.001	-0.001	-0.002	-0.001	-0.002	-0.002	-0.001	-0.000	-0.001	-0.002	-0.001
653.00	-0.000	0.001	0.001	-0.001	-0.000	-0.001	-0.001	-0.002	-0.001	-0.002	-0.002	-0.001	-0.000	-0.001	-0.002	-0.001
654.00	-0.000	0.001	0.001	-0.001	-0.000	-0.001	-0.001	-0.002	-0.001	-0.002	-0.002	-0.001	-0.000	-0.001	-0.002	-0.001
655.00	-0.000	0.001	0.001	-0.001	-0.000	-0.001	-0.001	-0.002	-0.001	-0.002	-0.002	-0.001	-0.000	-0.001	-0.002	-0.001
656.00	0.000	0.001	0.001	-0.001	-0.000	-0.001	-0.001	-0.002	-0.001	-0.002	-0.002	-0.001	-0.000	-0.001	-0.002	-0.001
657.00	0.000	0.001	0.001	-0.001	-0.000	-0.001	-0.001	-0.002	-0.001	-0.002	-0.002	-0.001	-0.000	-0.001	-0.002	-0.001
658.00	-0.000	0.001	0.001	-0.001	-0.000	-0.001	-0.001	-0.002	-0.001	-0.002	-0.002	-0.001	-0.000	-0.001	-0.002	-0.001
659.00	-0.000	0.001	0.001	-0.001	-0.000	-0.001	-0.001	-0.002	-0.001	-0.002	-0.002	-0.001	-0.000	-0.001	-0.002	-0.001
660.00	-0.000	0.001	0.001	-0.001	-0.000	-0.001	-0.001	-0.002	-0.001	-0.002	-0.002	-0.001	-0.000	-0.001	-0.002	-0.001
661.00	0.000	0.001	0.001	-0.001	-0.000	-0.001	-0.001	-0.002	-0.001	-0.002	-0.002	-0.001	-0.000	-0.001	-0.002	-0.001
662.00	-0.000	0.001	0.001	-0.001	-0.000	-0.001	-0.001	-0.002	-0.001	-0.002	-0.002	-0.001	-0.000	-0.001	-0.002	-0.001
663.00	-0.000	0.001	0.001	-0.001	-0.000	-0.001	-0.001	-0.002	-0.001	-0.002	-0.002	-0.001	-0.000	-0.001	-0.002	-0.001
664.00	-0.000	0.001	0.001	-0.001	-0.000	-0.001	-0.001	-0.002	-0.001	-0.002	-0.002	-0.001	-0.000	-0.001	-0.002	-0.001
665.00	-0.000	0.001	0.001	-0.001	-0.000	-0.001	-0.001	-0.002	-0.001	-0.002	-0.002	-0.001	-0.000	-0.001	-0.002	-0.001
666.00	-0.000	0.001	0.001	-0.001	-0.000	-0.001	-0.001	-0.002	-0.001	-0.002	-0.001	-0.001	-0.000	-0.001	-0.002	-0.001
667.00	-0.000	0.001	0.001	-0.001	-0.000	-0.001	-0.001	-0.002	-0.001	-0.002	-0.001	-0.001	-0.000	-0.001	-0.002	-0.001
668.00	-0.000	0.001	0.001	-0.001	-0.000	-0.001	-0.001	-0.002	-0.001	-0.002	-0.001	-0.001	-0.000	-0.001	-0.002	-0.001
669.00	0.000	0.001	0.001	-0.001	-0.000	-0.000	-0.001	-0.002	-0.001	-0.001	-0.001	-0.001	-0.000	-0.001	-0.002	-0.001
670.00	0.000	0.001	0.001	-0.001	-0.000	-0.000	-0.001	-0.002	-0.001	-0.001	-0.001	-0.001	-0.000	-0.001	-0.002	-0.001
671.00	-0.000	0.001	0.001	-0.001	-0.000	-0.001	-0.001	-0.002	-0.001	-0.001	-0.001	-0.001	-0.000	-0.001	-0.002	-0.001
672.00	-0.000	0.001	0.001	-0.001	-0.000	-0.000	-0.001	-0.001	-0.001	-0.001	-0.001	-0.001	-0.000	-0.001	-0.002	-0.001
673.00	0.000	0.001	0.001	-0.001	-0.000	-0.000	-0.001	-0.001	-0.001	-0.001	-0.001	-0.001	-0.000	-0.001	-0.002	-0.001
674.00	-0.000	0.001	0.001	-0.001	-0.000	-0.000	-0.001	-0.002	-0.001	-0.001	-0.001	-0.001	-0.000	-0.001	-0.002	-0.001
675.00	-0.000	0.001	0.001	-0.001	-0.000	-0.001	-0.001	-0.002	-0.001	-0.002	-0.001	-0.001	-0.000	-0.001	-0.002	-0.001
676.00	-0.000	0.001	0.001	-0.001	-0.000	-0.001	-0.001	-0.002	-0.001	-0.002	-0.001	-0.001	-0.000	-0.001	-0.002	-0.001
677.00	-0.000	0.001	0.001	-0.001	-0.000	-0.001	-0.001	-0.001	-0.001	-0.002	-0.001	-0.001	-0.000	-0.001	-0.002	-0.001
678.00	-0.000	0.001	0.001	-0.001	-0.000	-0.001	-0.001	-0.002	-0.001	-0.002	-0.001	-0.001	-0.000	-0.001	-0.002	-0.001
679.00	-0.000	0.001	0.001	-0.001	-0.000	-0.001	-0.001	-0.002	-0.001	-0.001	-0.001	-0.001	-0.000	-0.001	-0.002	-0.001
680.00	-0.000	0.001	0.001	-0.001	-0.000	-0.001	-0.001	-0.002	-0.001	-0.001	-0.001	-0.001	-0.000	-0.001	-0.002	-0.001
681.00	-0.000	0.001	0.001	-0.001	-0.000	-0.001	-0.001	-0.002	-0.001	-0.001	-0.001	-0.001	-0.000	-0.001	-0.002	-0.001
682.00	-0.000	0.001	0.001	-0.001	-0.000	-0.001	-0.001	-0.002	-0.001	-0.001	-0.001	-0.001	-0.000	-0.001	-0.002	-0.001
683.00	-0.000	0.001	0.001	-0.001	-0.000	-0.000	-0.001	-0.001	-0.001	-0.001	-0.001	-0.001	-0.000	-0.001	-0.002	-0.001
684.00	-0.000	0.001	0.001	-0.001	-0.000	-0.001	-0.001	-0.001	-0.001	-0.001	-0.001	-0.001	-0.000	-0.001	-0.002	-0.001
685.00	0.000	0.001	0.001	-0.001	-0.000	-0.000	-0.001	-0.001	-0.001	-0.001	-0.001	-0.001	-0.000	-0.001	-0.002	-0.001
686.00	-0.000	0.001	0.001	-0.001	-0.000	-0.000	-0.001	-0.002	-0.001	-0.001	-0.001	-0.001	-0.000	-0.001	-0.002	-0.001
687.00	-0.000	0.001	0.001	-0.001	-0.000	-0.001	-0.001	-0.002	-0.001	-0.002	-0.001	-0.001	-0.000	-0.001	-0.002	-0.001
688.00	-0.000	0.001	0.001	-0.001	-0.000	-0.001	-0.001	-0.002	-0.001	-0.002	-0.001	-0.001	-0.000	-0.001	-0.002	-0.001
689.00	-0.000	0.001	0.001	-0.001	-0.000	-0.001	-0.001	-0.001	-0.001	-0.002	-0.001	-0.001	-0.000	-0.001	-0.002	-0.001
690.00	-0.000	0.001	0.001	-0.001	-0.000	-0.001	-0.001	-0.002	-0.001	-0.002	-0.001	-0.001	-0.000	-0.001	-0.002	-0.001
691.00	-0.000	0.001	0.001	-0.001	-0.000	-0.001	-0.001	-0.002	-0.001	-0.002	-0.002	-0.001	-0.000	-0.001	-0.002	-0.001
692.00	-0.000	0.001	0.001	-0.001	-0.000	-0.001	-0.001	-0.002	-0.001	-0.002	-0.002	-0.001	-0.000	-0.001	-0.002	-0.001
693.00	-0.000	0.001	0.001	-0.001	-0.000	-0.001	-0.001	-0.002	-0.001	-0.002	-0.002	-0.001	-0.000	-0.001	-0.002	-0.001
694.00	-0.000	0.001	0.001	-0.001	-0.000	-0.001	-0.001	-0.002	-0.001	-0.002	-0.001	-0.001	-0.000	-0.001	-0.002	-0.001
695.00	-0.000	0.001	0.001	-0.001	-0.000	-0.001	-0.001	-0.002	-0.001	-0.001	-0.001	-0.001	-0.000	-0.001	-0.002	-0.001
696.00	-0.000	0.001	0.001	-0.001	-0.000	-0.001	-0.001	-0.002	-0.001	-0.002	-0.002	-0.001	-0.000	-0.001	-0.002	-0.001
697.00	-0.000	0.001	0.001	-0.001	-0.000	-0.001	-0.001	-0.002	-0.001	-0.002	-0.001	-0.001	-0.000	-0.001	-0.002	-0.001
698.00	-0.000	0.001	0.001	-0.001	-0.000	-0.001	-0.001	-0.002	-0.001	-0.002	-0.001	-0.001	-0.000	-0.001	-0.002	-0.001
699.00	-0.000	0.001	0.001	-0.001	-0.000	-0.001	-0.001	-0.002	-0.001	-0.002	-0.002	-0.001	-0.000	-0.001	-0.002	-0.001
700.00	-0.000	0.001	0.001	-0.001	-0.000	-0.001	-0.001	-0.002	-0.001	-0.002	-0.002	-0.001	-0.000	-0.001	-0.002	-0.001
701.00	-0.000	0.001	0.001	-0.001	-0.000	-0.001	-0.001	-0.002	-0.001	-0.001	-0.001	-0.001	-0.000	-0.001	-0.002	-0.001
702.00	0.000	0.001	0.001	-0.001	-0.000	-0.000	-0.001	-0.002	-0.001	-0.001	-0.001	-0.001	-0.000	-0.001	-0.002	-0.001
703.00	0.000	0.001	0.001	-0.001	-0.000	-0.001	-0.001	-0.002	-0.001	-0.001	-0.002	-0.001	-0.000	-0.001	-0.002	-0.001
704.00	0.000	0.001	0.001	-0.001	-0.000	-0.001	-0.001	-0.002	-0.001	-0.001	-0.001	-0.001	-0.000	-0.001	-0.002	-0.001
705.00	-0.000	0.001	0.001	-0.001	-0.000	-0.001	-0.001	-0.002	-0.001	-0.001	-0.001	-0.001	-0.000	-0.001	-0.002	-0.001
706.00	-0.000	0.001	0.001	-0.001	-0.000	-0.001	-0.001	-0.002	-0.001	-0.001	-0.002	-0.001	-0.000	-0.001	-0.002	-0.001
707.00	-0.000	0.001	0.001	-0.001	-0.000	-0.000	-0.001	-0.002	-0.001	-0.001	-0.002	-0.001	-0.000	-0.001	-0.002	-0.001
708.00	-0.000	0.001	0.001	-0.001	-0.000	-0.001	-0.001	-0.002	-0.001	-0.002	-0.002	-0.001	-0.000	-0.001	-0.002	-0.001
709.00	-0.000	0.001	0.001	-0.001	-0.000	-0.001	-0.001	-0.002	-0.001	-0.002	-0.002	-0.001	-0.000	-0.001	-0.002	-0.001
710.00	-0.000	0.001	0.001	-0.001	-0.000	-0.001	-0.001	-0.002	-0.001	-0.002	-0.002	-0.001	-0.000	-0.001	-0.002	-0.001
711.00	-0.000	0.001	0.001	-0.001	-0.000	-0.001	-0.001	-0.002	-0.001	-0.002	-0.002	-0.001	-0.000	-0.001	-0.002	-0.001
712.00	-0.000	0.001	0.001	-0.001	-0.000	-0.000	-0.001	-0.002	-0.001	-0.002	-0.002	-0.001	-0.000	-0.001	-0.002	-0.001
713.00	-0.000	0.001	0.001	-0.001	-0.000	-0.001	-0.001	-0.002	-0.001	-0.002	-0.002	-0.001	-0.000	-0.001	-0.002	-0.001
714.00	-0.000	0.001	0.001	-0.001	-0.000	-0.001	-0.001	-0.002	-0.001	-0.002	-0.002	-0.001	-0.000	-0.001	-0.002	-0.001
715.00	-0.000	0.001	0.001	-0.001	-0.000	-0.001	-0.001	-0.002	-0.001	-0.002	-0.002	-0.001	-0.000	-0.001	-0.002	-0.001
716.00	-0.000	0.001	0.001	-0.001	-0.000	-0.001	-0.001	-0.002	-0.001	-0.002	-0.002	-0.001	-0.000	-0.001	-0.002	-0.001
717.00	-0.000	0.001	0.001	-0.001	-0.000	-0.001	-0.001	-0.002	-0.001	-0.002	-0.002	-0.001	-0.000	-0.001	-0.002	-0.001
718.00	-0.000	0.001	0.001	-0.001	-0.000	-0.001	-0.001	-0.002	-0.001	-0.002	-0.002	-0.001	-0.000	-0.001	-0.002	-0.001
719.00	-0.000	0.001	0.001	-0.001	-0.000	-0.001	-0.001	-0.002	-0.001	-0.002	-0.002	-0.001	-0.000	-0.001	-0.002	-0.001
720.00	-0.000	0.001	0.001	-0.001	-0.000	-0.001	-0.001	-0.002	-0.001	-0.002	-0.002	-0.001	-0.000	-0.001	-0.002	-0.001
721.00	-0.000	0.001	0.001	-0.001	-0.000	-0.001	-0.001	-0.002	-0.001	-0.002	-0.002	-0.001	-0.000	-0.001	-0.002	-0.001
722.00	-0.000	0.001	0.001	-0.001	-0.000	-0.001	-0.001	-0.002	-0.001	-0.002	-0.002	-0.001	-0.000	-0.001	-0.002	-0.001
723.00	-0.000	0.001	0.001	-0.001	-0.000	-0.001	-0.001	-0.002	-0.001	-0.002	-0.002	-0.001	-0.000	-0.001	-0.002	-0.001
724.00	-0.000	0.001	0.001	-0.001	-0.000	-0.001	-0.001	-0.002	-0.001	-0.002	-0.002	-0.001	-0.000	-0.001	-0.002	-0.001
725.00	-0.000	0.001	0.001	-0.001	-0.000	-0.001	-0.001	-0.002	-0.001	-0.002	-0.002	-0.001	-0.000	-0.001	-0.002	-0.001
726.00	-0.000	0.001	0.001	-0.001	-0.000	-0.001	-0.001	-0.002	-0.001	-0.002	-0.002	-0.001	-0.000	-0.001	-0.002	-0.001
727.00	-0.000	0.001	0.001	-0.001	-0.000	-0.001	-0.001	-0.002	-0.001	-0.002	-0.002	-0.001	-0.000	-0.001	-0.002	-0.001
728.00	-0.000	0.001	0.001	-0.001	-0.000	-0.001	-0.001	-0.002	-0.001	-0.002	-0.002	-0.001	-0.000	-0.001	-0.002	-0.001
729.00	0.000	0.001	0.001	-0.001	-0.000	-0.001	-0.001	-0.002	-0.001	-0.002	-0.002	-0.001	-0.000	-0.001	-0.002	-0.001
730.00	-0.000	0.001	0.001	-0.001	-0.000	-0.001	-0.001	-0.002	-0.001	-0.002	-0.002	-0.001	-0.000	-0.001	-0.002	-0.001
731.00	-0.000	0.001	0.001	-0.001	-0.000	-0.001	-0.001	-0.002	-0.001	-0.002	-0.002	-0.001	-0.000	-0.001	-0.002	-0.001
732.00	-0.000	0.001	0.001	-0.001	-0.000	-0.001	-0.001	-0.002	-0.001	-0.002	-0.002	-0.001	-0.000	-0.001	-0.002	-0.001
733.00	-0.000	0.001	0.001	-0.001	-0.000	-0.001	-0.001	-0.002	-0.001	-0.002	-0.002	-0.001	-0.000	-0.001	-0.002	-0.001
734.00	-0.000	0.001	0.001	-0.001	-0.000	-0.001	-0.001	-0.002	-0.001	-0.002	-0.002	-0.001	-0.000	-0.001	-0.002	-0.001
735.00	-0.000	0.001	0.001	-0.001	-0.000	-0.001	-0.001	-0.002	-0.001	-0.002	-0.002	-0.001	-0.000	-0.001	-0.002	-0.001
736.00	-0.000	0.001	0.001	-0.001	-0.000	-0.001	-0.001	-0.002	-0.001	-0.002	-0.002	-0.001	-0.000	-0.001	-0.002	-0.001
737.00	-0.000	0.001	0.001	-0.001	-0.000	-0.001	-0.001	-0.002	-0.001	-0.002	-0.002	-0.001	-0.000	-0.001	-0.002	-0.001
738.00	-0.000	0.001	0.001	-0.001	-0.000	-0.001	-0.001	-0.002	-0.001	-0.002	-0.002	-0.001	-0.000	-0.001	-0.002	-0.001
739.00	-0.000	0.001	0.001	-0.001	-0.001	-0.001	-0.001	-0.002	-0.001	-0.002	-0.002	-0.001	-0.000	-0.001	-0.002	-0.001
740.00	0.000	0.001	0.001	-0.001	-0.001	-0.001	-0.001	-0.002	-0.001	-0.002	-0.002	-0.001	-0.000	-0.001	-0.002	-0.001
741.00	0.000	0.001	0.001	-0.001	-0.000	-0.001	-0.001	-0.002	-0.001	-0.002	-0.002	-0.001	-0.000	-0.001	-0.002	-0.001
742.00	0.000	0.001	0.001	-0.001	-0.000	-0.001	-0.001	-0.002	-0.001	-0.002	-0.002	-0.001	-0.000	-0.001	-0.002	-0.001
743.00	-0.000	0.001	0.001	-0.001	-0.000	-0.001	-0.001	-0.002	-0.001	-0.002	-0.002	-0.001	-0.000	-0.001	-0.002	-0.001
744.00	-0.000	0.001	0.001	-0.001	-0.000	-0.001	-0.001	-0.002	-0.001	-0.002	-0.002	-0.001	-0.000	-0.001	-0.002	-0.001
745.00	-0.000	0.001	0.001	-0.001	-0.000	-0.001	-0.001	-0.002	-0.001	-0.002	-0.002	-0.001	-0.000	-0.001	-0.002	-0.001
746.00	-0.000	0.001	0.001	-0.001	-0.001	-0.001	-0.001	-0.002	-0.001	-0.002	-0.002	-0.001	-0.000	-0.001	-0.002	-0.001
747.00	-0.000	0.001	0.001	-0.001	-0.000	-0.001	-0.001	-0.002	-0.001	-0.002	-0.002	-0.001	-0.000	-0.001	-0.002	-0.001
748.00	-0.000	0.001	0.001	-0.001	-0.000	-0.001	-0.001	-0.002	-0.001	-0.002	-0.002	-0.001	-0.000	-0.001	-0.002	-0.001
749.00	-0.000	0.001	0.001	-0.001	-0.000	-0.001	-0.001	-0.001	-0.001	-0.002	-0.002	-0.001	-0.000	-0.001	-0.002	-0.001
750.00	-0.000	0.001	0.001	-0.001	-0.000	-0.001	-0.001	-0.002	-0.001	-0.002	-0.002	-0.001	-0.000	-0.001	-0.002	-0.001
751.00	-0.000	0.001	0.001	-0.001	-0.000	-0.001	-0.001	-0.002	-0.001	-0.002	-0.002	-0.001	-0.000	-0.001	-0.002	-0.001
752.00	-0.000	0.001	0.001	-0.001	-0.000	-0.000	-0.001	-0.002	-0.001	-0.001	-0.002	-0.001	-0.000	-0.001	-0.002	-0.001
753.00	0.000	0.001	0.001	-0.001	-0.000	-0.001	-0.001	-0.002	-0.001	-0.001	-0.002	-0.001	-0.000	-0.001	-0.002	-0.001
754.00	-0.000	0.001	0.001	-0.001	-0.000	-0.001	-0.001	-0.002	-0.001	-0.001	-0.002	-0.001	-0.000	-0.001	-0.002	-0.001
755.00	-0.000	0.001	0.001	-0.001	-0.001	-0.001	-0.001	-0.002	-0.001	-0.001	-0.001	-0.001	-0.000	-0.001	-0.002	-0.001
756.00	-0.000	0.001	0.001	-0.001	-0.000	-0.001	-0.001	-0.002	-0.001	-0.001	-0.002	-0.001	-0.000	-0.001	-0.002	-0.001
757.00	-0.000	0.001	0.001	-0.001	-0.000	-0.001	-0.001	-0.002	-0.001	-0.001	-0.002	-0.001	-0.000	-0.001	-0.002	-0.001
758.00	-0.000	0.001	0.001	-0.001	-0.000	-0.001	-0.001	-0.002	-0.001	-0.001	-0.002	-0.001	-0.000	-0.001	-0.002	-0.001
759.00	0.000	0.001	0.001	-0.001	-0.000	-0.000	-0.001	-0.001	-0.001	-0.001	-0.001	-0.001	-0.000	-0.001	-0.001	-0.001
760.00	0.001	0.002	0.002	0.000	0.001	0.001	0.000	-0.000	0.000	-0.000	-0.000	0.000	0.001	0.000	-0.000	0.000
761.00	0.000	0.001	0.001	-0.001	-0.000	-0.000	-0.001	-0.001	-0.001	-0.001	-0.001	-0.001	-0.000	-0.001	-0.001	-0.001
762.00	-0.000	0.001	0.001	-0.001	-0.000	-0.001	-0.001	-0.002	-0.001	-0.001	-0.002	-0.001	-0.000	-0.001	-0.002	-0.001
763.00	-0.000	0.001	0.001	-0.001	-0.000	-0.001	-0.001	-0.002	-0.001	-0.001	-0.001	-0.001	-0.000	-0.001	-0.002	-0.001
764.00	-0.000	0.001	0.001	-0.001	-0.000	-0.001	-0.001	-0.002	-0.001	-0.001	-0.001	-0.001	-0.000	-0.001	-0.002	-0.001
765.00	-0.000	0.001	0.001	-0.001	-0.000	-0.001	-0.001	-0.001	-0.001	-0.001	-0.001	-0.001	-0.000	-0.001	-0.002	-0.001
766.00	-0.000	0.001	0.001	-0.001	-0.001	-0.001	-0.001	-0.001	-0.001	-0.001	-0.002	-0.001	-0.000	-0.001	-0.002	-0.001
767.00	-0.000	0.001	0.001	-0.001	-0.001	-0.001	-0.001	-0.002	-0.001	-0.001	-0.002	-0.001	-0.000	-0.001	-0.002	-0.001
768.00	-0.000	0.001	0.001	-0.001	-0.000	-0.001	-0.001	-0.001	-0.001	-0.001	-0.001	-0.001	-0.000	-0.001	-0.002	-0.001
769.00	-0.000	0.001	0.001	-0.001	-0.001	-0.001	-0.001	-0.001	-0.001	-0.001	-0.002	-0.001	-0.000	-0.001	-0.002	-0.001
770.00	-0.000	0.001	0.001	-0.001	-0.000	-0.000	-0.001	-0.001	-0.001	-0.001	-0.001	-0.001	-0.000	-0.001	-0.002	-0.001
771.00	-0.000	0.001	0.001	-0.001	-0.001	-0.001	-0.001	-0.001	-0.001	-0.001	-0.001	-0.001	-0.000	-0.001	-0.002	-0.001
772.00	-0.000	0.001	0.001	-0.001	-0.000	-0.000	-0.001	-0.001	-0.001	-0.001	-0.001	-0.001	-0.000	-0.001	-0.002	-0.001
773.00	-0.000	0.001	0.001	-0.001	-0.000	-0.000	-0.001	-0.001	-0.001	-0.001	-0.001	-0.001	-0.000	-0.001	-0.002	-0.001
774.00	-0.000	0.001	0.001	-0.001	-0.000	-0.000	-0.001	-0.001	-0.001	-0.001	-0.001	-0.001	-0.000	-0.001	-0.002	-0.001
775.00	-0.000	0.001	0.001	-0.001	-0.000	-0.000	-0.001	-0.001	-0.001	-0.001	-0.001	-0.001	-0.000	-0.001	-0.002	-0.001
776.00	-0.000	0.001	0.001	-0.001	-0.000	-0.000	-0.001	-0.001	-0.001	-0.001	-0.001	-0.001	-0.000	-0.001	-0.002	-0.001
777.00	-0.000	0.001	0.001	-0.001	-0.000	-0.000	-0.001	-0.001	-0.001	-0.001	-0.001	-0.001	-0.000	-0.001	-0.002	-0.001
778.00	-0.000	0.001	0.001	-0.001	-0.000	-0.000	-0.001	-0.001	-0.001	-0.001	-0.001	-0.001	-0.000	-0.001	-0.002	-0.001
779.00	-0.000	0.001	0.001	-0.001	-0.000	-0.000	-0.001	-0.001	-0.001	-0.001	-0.001	-0.001	-0.000	-0.001	-0.002	-0.001
780.00	-0.000	0.001	0.001	-0.001	-0.000	-0.001	-0.001	-0.001	-0.001	-0.001	-0.001	-0.001	-0.000	-0.001	-0.002	-0.001
781.00	-0.000	0.001	0.001	-0.001	-0.000	-0.000	-0.001	-0.001	-0.001	-0.001	-0.001	-0.001	-0.000	-0.001	-0.002	-0.001
782.00	-0.000	0.001	0.001	-0.001	-0.000	-0.000	-0.001	-0.001	-0.001	-0.001	-0.001	-0.001	-0.000	-0.001	-0.002	-0.001
783.00	-0.000	0.001	0.001	-0.001	-0.000	-0.000	-0.001	-0.001	-0.001	-0.001	-0.001	-0.001	-0.000	-0.001	-0.002	-0.001
784.00	-0.000	0.001	0.001	-0.001	-0.000	-0.000	-0.001	-0.001	-0.001	-0.001	-0.001	-0.001	-0.000	-0.001	-0.002	-0.001
785.00	-0.000	0.001	0.001	-0.001	-0.000	-0.000	-0.001	-0.001	-0.001	-0.001	-0.001	-0.001	-0.000	-0.001	-0.001	-0.001
786.00	-0.000	0.001	0.001	-0.001	-0.000	-0.000	-0.001	-0.001	-0.001	-0.001	-0.001	-0.001	-0.000	-0.001	-0.002	-0.001
787.00	-0.000	0.001	0.001	-0.001	-0.000	-0.000	-0.001	-0.001	-0.001	-0.001	-0.001	-0.001	-0.000	-0.001	-0.002	-0.001
788.00	-0.000	0.001	0.001	-0.001	-0.000	-0.001	-0.001	-0.001	-0.001	-0.001	-0.001	-0.001	-0.000	-0.001	-0.002	-0.001
789.00	-0.000	0.001	0.001	-0.001	-0.000	-0.000	-0.001	-0.001	-0.001	-0.001	-0.001	-0.001	-0.000	-0.001	-0.002	-0.001
790.00	-0.000	0.001	0.001	-0.001	-0.000	-0.000	-0.001	-0.001	-0.001	-0.001	-0.001	-0.001	-0.000	-0.001	-0.002	-0.001
791.00	-0.000	0.001	0.001	-0.001	-0.000	-0.000	-0.001	-0.001	-0.001	-0.001	-0.001	-0.001	-0.000	-0.001	-0.001	-0.001
792.00	-0.000	0.001	0.001	-0.001	-0.000	-0.000	-0.001	-0.001	-0.001	-0.001	-0.001	-0.001	-0.000	-0.001	-0.001	-0.001
793.00	-0.000	0.001	0.001	-0.001	-0.000	-0.000	-0.001	-0.001	-0.001	-0.001	-0.001	-0.001	-0.000	-0.001	-0.001	-0.001
794.00	-0.000	0.001	0.001	-0.001	-0.000	-0.000	-0.001	-0.001	-0.001	-0.001	-0.001	-0.001	-0.000	-0.001	-0.002	-0.001
795.00	-0.000	0.000	0.001	-0.001	-0.000	-0.001	-0.001	-0.001	-0.001	-0.001	-0.001	-0.001	-0.000	-0.001	-0.002	-0.001
796.00	-0.000	0.001	0.001	-0.001	-0.000	-0.000	-0.001	-0.001	-0.001	-0.001	-0.001	-0.001	-0.000	-0.001	-0.002	-0.001
797.00	-0.000	0.001	0.001	-0.001	-0.000	-0.000	-0.001	-0.001	-0.001	-0.001	-0.001	-0.001	-0.000	-0.001	-0.002	-0.001
798.00	-0.000	0.001	0.001	-0.001	-0.000	-0.000	-0.001	-0.001	-0.001	-0.001	-0.001	-0.001	-0.000	-0.001	-0.002	-0.001
799.00	-0.000	0.001	0.001	-0.001	-0.000	-0.000	-0.001	-0.001	-0.001	-0.001	-0.001	-0.001	-0.000	-0.001	-0.002	-0.001
800.00	-0.000	0.001	0.001	-0.001	-0.000	-0.000	-0.001	-0.001	-0.001	-0.001	-0.001	-0.001	-0.000	-0.001	-0.002	-0.001
801.00	-0.000	0.001	0.001	-0.001	-0.000	-0.000	-0.001	-0.001	-0.001	-0.001	-0.001	-0.001	-0.000	-0.001	-0.002	-0.001
802.00	-0.000	0.001	0.001	-0.001	-0.000	-0.000	-0.001	-0.001	-0.001	-0.001	-0.001	-0.001	-0.000	-0.001	-0.002	-0.001
803.00	-0.000	0.001	0.001	-0.001	-0.000	-0.000	-0.001	-0.001	-0.001	-0.001	-0.001	-0.001	-0.000	-0.001	-0.002	-0.001
804.00	-0.000	0.001	0.001	-0.001	-0.000	-0.000	-0.001	-0.001	-0.001	-0.001	-0.001	-0.001	-0.000	-0.001	-0.001	-0.001
805.00	-0.000	0.001	0.001	-0.001	-0.000	-0.000	-0.001	-0.001	-0.001	-0.001	-0.001	-0.001	-0.000	-0.001	-0.001	-0.001
806.00	-0.000	0.001	0.001	-0.001	-0.000	-0.000	-0.001	-0.001	-0.001	-0.001	-0.001	-0.001	-0.000	-0.001	-0.001	-0.001
807.00	-0.000	0.001	0.001	-0.001	-0.000	-0.000	-0.001	-0.001	-0.001	-0.001	-0.001	-0.001	-0.000	-0.001	-0.001	-0.001
808.00	-0.000	0.001	0.001	-0.001	-0.000	-0.000	-0.001	-0.001	-0.001	-0.001	-0.001	-0.001	-0.000	-0.001	-0.001	-0.001
809.00	-0.000	0.001	0.001	-0.001	-0.000	-0.000	-0.001	-0.001	-0.001	-0.001	-0.001	-0.001	-0.000	-0.001	-0.001	-0.001
810.00	-0.000	0.001	0.001	-0.000	-0.000	-0.000	-0.001	-0.001	-0.001	-0.001	-0.001	-0.001	-0.000	-0.001	-0.001	-0.001
811.00	-0.000	0.001	0.001	-0.000	-0.000	-0.000	-0.001	-0.001	-0.001	-0.001	-0.001	-0.001	-0.000	-0.001	-0.001	-0.001
812.00	-0.000	0.001	0.001	-0.001	-0.000	-0.000	-0.001	-0.001	-0.001	-0.001	-0.001	-0.001	-0.000	-0.001	-0.001	-0.001
813.00	-0.000	0.001	0.001	-0.000	-0.000	-0.000	-0.001	-0.001	-0.001	-0.001	-0.001	-0.001	-0.000	-0.001	-0.001	-0.001
814.00	-0.000	0.001	0.001	-0.001	-0.000	-0.000	-0.001	-0.001	-0.001	-0.001	-0.001	-0.001	-0.000	-0.001	-0.001	-0.001
815.00	-0.000	0.001	0.001	-0.001	-0.000	-0.000	-0.001	-0.001	-0.001	-0.001	-0.001	-0.001	-0.000	-0.001	-0.001	-0.001
816.00	-0.000	0.001	0.001	-0.001	-0.000	-0.000	-0.001	-0.001	-0.001	-0.001	-0.001	-0.001	-0.000	-0.001	-0.001	-0.001
817.00	-0.000	0.001	0.001	-0.001	-0.000	-0.000	-0.001	-0.001	-0.001	-0.001	-0.001	-0.001	-0.000	-0.001	-0.001	-0.001
818.00	-0.000	0.001	0.001	-0.001	-0.000	-0.000	-0.001	-0.001	-0.001	-0.001	-0.001	-0.001	-0.000	-0.001	-0.001	-0.001
819.00	-0.000	0.001	0.001	-0.001	-0.000	-0.000	-0.001	-0.001	-0.001	-0.001	-0.001	-0.001	-0.000	-0.001	-0.001	-0.001
820.00	0.000	0.001	0.001	-0.001	-0.000	-0.000	-0.001	-0.001	-0.001	-0.001	-0.001	-0.001	-0.000	-0.001	-0.001	-0.001
821.00	0.000	0.001	0.001	-0.001	-0.000	-0.000	-0.001	-0.001	-0.001	-0.001	-0.001	-0.001	-0.000	-0.001	-0.001	-0.001
822.00	-0.000	0.001	0.001	-0.001	-0.000	-0.000	-0.001	-0.001	-0.001	-0.001	-0.001	-0.001	-0.000	-0.001	-0.001	-0.001
823.00	-0.000	0.001	0.001	-0.001	-0.000	-0.000	-0.001	-0.001	-0.001	-0.001	-0.001	-0.001	-0.000	-0.001	-0.001	-0.001
824.00	0.000	0.001	0.001	-0.001	-0.000	-0.000	-0.001	-0.001	-0.001	-0.001	-0.001	-0.001	-0.000	-0.001	-0.001	-0.001
825.00	0.000	0.001	0.001	-0.001	-0.000	-0.000	-0.001	-0.001	-0.001	-0.001	-0.001	-0.001	-0.000	-0.001	-0.001	-0.001
826.00	0.000	0.001	0.001	-0.001	-0.000	-0.000	-0.001	-0.001	-0.001	-0.001	-0.001	-0.001	-0.000	-0.001	-0.001	-0.001
827.00	0.000	0.001	0.001	-0.001	-0.000	-0.000	-0.001	-0.001	-0.001	-0.001	-0.001	-0.001	-0.000	-0.001	-0.001	-0.001
828.00	0.000	0.001	0.001	-0.001	-0.000	-0.000	-0.001	-0.001	-0.001	-0.001	-0.001	-0.001	-0.000	-0.001	-0.001	-0.001
829.00	0.000	0.001	0.001	-0.001	-0.000	-0.000	-0.001	-0.001	-0.001	-0.001	-0.001	-0.001	-0.000	-0.001	-0.002	-0.001
830.00	0.000	0.001	0.001	-0.001	-0.000	-0.000	-0.001	-0.001	-0.001	-0.001	-0.001	-0.001	-0.000	-0.001	-0.002	-0.001
831.00	0.000	0.001	0.001	-0.001	-0.000	-0.000	-0.001	-0.001	-0.001	-0.001	-0.001	-0.001	-0.000	-0.001	-0.002	-0.001
832.00	0.000	0.001	0.001	-0.001	-0.000	-0.000	-0.001	-0.001	-0.001	-0.001	-0.001	-0.001	-0.000	-0.001	-0.002	-0.001
833.00	0.000	0.001	0.001	-0.001	-0.000	-0.000	-0.001	-0.001	-0.001	-0.001	-0.001	-0.001	-0.000	-0.001	-0.002	-0.001
834.00	0.000	0.001	0.001	-0.001	-0.000	-0.000	-0.001	-0.001	-0.001	-0.001	-0.001	-0.001	-0.000	-0.001	-0.002	-0.001
835.00	0.000	0.001	0.001	-0.001	-0.000	-0.000	-0.001	-0.001	-0.001	-0.001	-0.001	-0.001	-0.000	-0.001	-0.002	-0.001
836.00	0.000	0.001	0.001	-0.001	-0.000	-0.000	-0.001	-0.001	-0.001	-0.001	-0.001	-0.001	-0.000	-0.001	-0.002	-0.001
837.00	0.000	0.001	0.001	-0.001	-0.000	-0.000	-0.001	-0.001	-0.001	-0.001	-0.001	-0.001	-0.000	-0.001	-0.002	-0.001
838.00	0.000	0.001	0.001	-0.001	-0.000	-0.000	-0.001	-0.001	-0.001	-0.001	-0.001	-0.001	-0.000	-0.001	-0.002	-0.001
839.00	0.000	0.000	0.001	-0.001	-0.000	-0.000	-0.001	-0.001	-0.001	-0.001	-0.001	-0.001	-0.000	-0.001	-0.002	-0.001
840.00	0.000	0.000	0.001	-0.001	-0.000	-0.001	-0.001	-0.001	-0.001	-0.001	-0.001	-0.001	-0.000	-0.001	-0.002	-0.001
841.00	0.000	0.000	0.001	-0.001	-0.000	-0.001	-0.001	-0.001	-0.001	-0.001	-0.001	-0.001	-0.000	-0.001	-0.002	-0.001
842.00	0.000	0.000	0.001	-0.001	-0.000	-0.000	-0.001	-0.001	-0.001	-0.001	-0.001	-0.001	-0.000	-0.001	-0.002	-0.001
843.00	-0.000	0.000	0.001	-0.001	-0.001	-0.001	-0.001	-0.001	-0.001	-0.001	-0.002	-0.001	-0.000	-0.001	-0.002	-0.001
844.00	-0.000	0.000	0.001	-0.001	-0.000	-0.001	-0.001	-0.001	-0.001	-0.001	-0.002	-0.001	-0.000	-0.001	-0.002	-0.001
845.00	0.000	0.000	0.001	-0.001	-0.000	-0.000	-0.001	-0.001	-0.001	-0.001	-0.001	-0.001	-0.000	-0.001	-0.002	-0.001
846.00	0.000	0.001	0.001	-0.001	-0.000	-0.000	-0.001	-0.001	-0.001	-0.001	-0.001	-0.001	-0.000	-0.001	-0.002	-0.001
847.00	0.000	0.000	0.001	-0.001	-0.000	-0.000	-0.001	-0.001	-0.001	-0.001	-0.001	-0.001	-0.000	-0.001	-0.002	-0.001
848.00	0.000	0.000	0.001	-0.001	-0.000	-0.000	-0.001	-0.001	-0.001	-0.001	-0.001	-0.001	-0.000	-0.001	-0.002	-0.001
849.00	0.000	0.000	0.001	-0.001	-0.001	-0.001	-0.001	-0.001	-0.001	-0.001	-0.001	-0.001	-0.000	-0.001	-0.002	-0.001
850.00	0.000	0.000	0.001	-0.001	-0.001	-0.000	-0.001	-0.001	-0.001	-0.001	-0.001	-0.001	-0.000	-0.001	-0.002	-0.001
