Wavelength nm.	RawData ...	RawData ...	RawData ...	RawData ...	RawData ...	RawData ...	RawData ...	RawData ...	RawData ...	RawData ...	RawData ...
190.00	-0.004	0.445	0.481	0.451	0.426	0.430	0.450	0.424	0.440	0.415	0.493
191.00	-0.006	0.410	0.443	0.408	0.388	0.390	0.412	0.384	0.403	0.374	0.448
192.00	-0.005	0.376	0.407	0.373	0.353	0.357	0.379	0.350	0.371	0.342	0.412
193.00	-0.005	0.337	0.368	0.334	0.317	0.320	0.340	0.314	0.337	0.305	0.374
194.00	-0.006	0.308	0.340	0.304	0.289	0.290	0.309	0.284	0.311	0.276	0.343
195.00	-0.006	0.280	0.313	0.276	0.263	0.263	0.280	0.259	0.286	0.250	0.317
196.00	-0.005	0.256	0.292	0.254	0.242	0.241	0.258	0.239	0.266	0.228	0.296
197.00	-0.005	0.237	0.272	0.234	0.223	0.222	0.238	0.221	0.248	0.211	0.277
198.00	-0.005	0.218	0.255	0.218	0.207	0.205	0.221	0.206	0.232	0.195	0.260
199.00	-0.005	0.203	0.240	0.203	0.192	0.190	0.207	0.193	0.219	0.182	0.246
200.00	-0.004	0.192	0.228	0.191	0.180	0.179	0.195	0.181	0.209	0.172	0.234
201.00	-0.004	0.180	0.217	0.180	0.169	0.168	0.183	0.170	0.199	0.162	0.223
202.00	-0.003	0.171	0.207	0.169	0.159	0.159	0.173	0.160	0.191	0.154	0.214
203.00	-0.002	0.163	0.199	0.161	0.151	0.152	0.165	0.153	0.184	0.147	0.206
204.00	-0.002	0.156	0.191	0.153	0.144	0.145	0.157	0.146	0.177	0.141	0.199
205.00	-0.002	0.149	0.184	0.147	0.138	0.139	0.151	0.140	0.171	0.135	0.193
206.00	-0.002	0.144	0.178	0.141	0.132	0.134	0.145	0.135	0.165	0.130	0.186
207.00	-0.002	0.139	0.172	0.137	0.128	0.129	0.141	0.130	0.160	0.126	0.181
208.00	-0.001	0.134	0.167	0.132	0.124	0.125	0.136	0.126	0.155	0.122	0.175
209.00	-0.001	0.130	0.162	0.128	0.120	0.121	0.132	0.122	0.150	0.119	0.170
210.00	-0.001	0.126	0.156	0.124	0.117	0.118	0.128	0.119	0.146	0.115	0.164
211.00	-0.001	0.123	0.151	0.121	0.114	0.115	0.124	0.116	0.141	0.112	0.159
212.00	-0.001	0.120	0.147	0.118	0.111	0.112	0.121	0.113	0.137	0.110	0.154
213.00	-0.001	0.116	0.142	0.114	0.108	0.109	0.117	0.110	0.132	0.107	0.148
214.00	-0.001	0.113	0.137	0.111	0.105	0.106	0.114	0.107	0.128	0.104	0.143
215.00	-0.001	0.110	0.133	0.108	0.103	0.104	0.111	0.105	0.124	0.102	0.139
216.00	-0.001	0.108	0.128	0.106	0.101	0.102	0.108	0.103	0.119	0.100	0.133
217.00	-0.001	0.105	0.123	0.103	0.098	0.099	0.106	0.100	0.115	0.097	0.128
218.00	-0.001	0.103	0.119	0.101	0.096	0.097	0.103	0.098	0.112	0.095	0.124
219.00	-0.001	0.101	0.115	0.099	0.095	0.095	0.101	0.096	0.108	0.093	0.119
220.00	-0.001	0.099	0.112	0.097	0.093	0.093	0.099	0.094	0.104	0.092	0.115
221.00	-0.001	0.097	0.108	0.095	0.091	0.091	0.097	0.092	0.101	0.090	0.111
222.00	-0.001	0.095	0.105	0.093	0.089	0.090	0.095	0.091	0.098	0.088	0.107
223.00	-0.001	0.093	0.102	0.091	0.087	0.088	0.093	0.089	0.095	0.086	0.103
224.00	-0.001	0.091	0.098	0.089	0.086	0.086	0.092	0.087	0.092	0.085	0.100
225.00	-0.001	0.090	0.096	0.087	0.084	0.085	0.090	0.086	0.089	0.083	0.096
226.00	-0.001	0.088	0.093	0.085	0.083	0.083	0.088	0.084	0.087	0.082	0.093
227.00	-0.001	0.087	0.090	0.083	0.081	0.082	0.087	0.083	0.084	0.080	0.090
228.00	-0.001	0.085	0.088	0.082	0.080	0.080	0.086	0.081	0.082	0.079	0.088
229.00	-0.001	0.084	0.085	0.080	0.078	0.079	0.084	0.080	0.080	0.078	0.085
230.00	-0.001	0.082	0.083	0.079	0.076	0.077	0.082	0.078	0.078	0.076	0.083
231.00	-0.001	0.081	0.081	0.077	0.075	0.076	0.081	0.077	0.076	0.075	0.081
232.00	-0.001	0.079	0.079	0.076	0.074	0.075	0.080	0.075	0.074	0.074	0.079
233.00	-0.000	0.078	0.077	0.074	0.073	0.073	0.079	0.074	0.073	0.073	0.077
234.00	-0.000	0.077	0.076	0.073	0.071	0.072	0.077	0.073	0.071	0.072	0.075
235.00	-0.000	0.075	0.074	0.071	0.070	0.071	0.076	0.072	0.070	0.071	0.073
236.00	-0.000	0.074	0.073	0.070	0.069	0.070	0.075	0.071	0.069	0.070	0.072
237.00	-0.000	0.073	0.071	0.069	0.068	0.069	0.074	0.070	0.067	0.069	0.070
238.00	-0.000	0.072	0.070	0.068	0.067	0.068	0.073	0.068	0.066	0.068	0.069
239.00	-0.000	0.071	0.069	0.067	0.066	0.067	0.072	0.067	0.065	0.066	0.068
240.00	0.000	0.070	0.068	0.066	0.065	0.066	0.071	0.066	0.064	0.066	0.067
241.00	0.000	0.069	0.067	0.065	0.064	0.065	0.071	0.065	0.063	0.065	0.066
242.00	-0.000	0.068	0.066	0.064	0.063	0.064	0.070	0.065	0.062	0.064	0.065
243.00	-0.000	0.067	0.065	0.063	0.062	0.063	0.069	0.064	0.061	0.063	0.064
244.00	0.000	0.066	0.064	0.063	0.062	0.063	0.068	0.063	0.061	0.063	0.063
245.00	-0.000	0.065	0.063	0.062	0.061	0.062	0.068	0.062	0.060	0.062	0.062
246.00	-0.000	0.065	0.062	0.061	0.060	0.061	0.067	0.062	0.059	0.061	0.061
247.00	0.000	0.064	0.062	0.061	0.060	0.061	0.066	0.061	0.059	0.061	0.061
248.00	0.000	0.063	0.061	0.060	0.059	0.060	0.066	0.061	0.058	0.060	0.060
249.00	0.000	0.063	0.060	0.060	0.059	0.060	0.065	0.060	0.057	0.059	0.060
250.00	-0.000	0.062	0.060	0.059	0.058	0.059	0.065	0.059	0.057	0.059	0.059
251.00	0.000	0.062	0.059	0.059	0.058	0.059	0.064	0.059	0.056	0.059	0.059
252.00	-0.000	0.061	0.059	0.058	0.057	0.058	0.063	0.058	0.056	0.058	0.058
253.00	0.000	0.061	0.058	0.058	0.057	0.058	0.063	0.058	0.055	0.058	0.057
254.00	0.000	0.060	0.058	0.057	0.056	0.057	0.062	0.057	0.055	0.057	0.057
255.00	-0.000	0.059	0.057	0.057	0.056	0.057	0.061	0.057	0.054	0.057	0.056
256.00	-0.000	0.059	0.057	0.056	0.055	0.056	0.061	0.056	0.054	0.056	0.056
257.00	0.000	0.059	0.056	0.056	0.055	0.056	0.060	0.056	0.053	0.056	0.056
258.00	0.000	0.058	0.056	0.056	0.054	0.055	0.060	0.056	0.053	0.055	0.055
259.00	0.000	0.058	0.055	0.055	0.054	0.055	0.059	0.055	0.052	0.055	0.055
260.00	0.000	0.057	0.055	0.055	0.053	0.054	0.059	0.054	0.052	0.054	0.054
261.00	0.000	0.056	0.054	0.054	0.053	0.054	0.058	0.054	0.051	0.054	0.053
262.00	0.000	0.056	0.054	0.054	0.052	0.053	0.057	0.054	0.051	0.053	0.053
263.00	0.000	0.055	0.053	0.053	0.051	0.053	0.057	0.053	0.051	0.053	0.053
264.00	0.000	0.055	0.053	0.053	0.051	0.052	0.056	0.052	0.050	0.052	0.052
265.00	0.000	0.054	0.052	0.052	0.050	0.052	0.055	0.052	0.049	0.052	0.052
266.00	0.000	0.053	0.051	0.052	0.050	0.051	0.054	0.051	0.049	0.051	0.051
267.00	0.000	0.053	0.051	0.051	0.049	0.050	0.053	0.050	0.048	0.050	0.050
268.00	0.000	0.052	0.050	0.050	0.048	0.050	0.053	0.050	0.047	0.050	0.050
269.00	0.000	0.051	0.049	0.050	0.047	0.049	0.052	0.049	0.047	0.049	0.049
270.00	0.000	0.051	0.049	0.049	0.047	0.048	0.051	0.048	0.046	0.048	0.048
271.00	0.000	0.050	0.048	0.049	0.046	0.048	0.051	0.048	0.046	0.048	0.048
272.00	0.000	0.049	0.047	0.048	0.046	0.047	0.050	0.047	0.045	0.047	0.047
273.00	0.000	0.049	0.047	0.047	0.045	0.046	0.049	0.046	0.044	0.046	0.047
274.00	0.000	0.048	0.046	0.047	0.044	0.046	0.048	0.046	0.044	0.045	0.046
275.00	0.000	0.047	0.045	0.046	0.043	0.045	0.047	0.045	0.043	0.045	0.045
276.00	0.000	0.046	0.045	0.045	0.042	0.044	0.046	0.044	0.042	0.044	0.044
277.00	0.000	0.045	0.044	0.044	0.042	0.043	0.046	0.043	0.041	0.043	0.044
278.00	0.000	0.045	0.043	0.044	0.041	0.042	0.045	0.043	0.041	0.042	0.043
279.00	0.000	0.044	0.042	0.043	0.040	0.042	0.044	0.042	0.040	0.042	0.042
280.00	0.000	0.043	0.042	0.042	0.040	0.041	0.043	0.041	0.039	0.041	0.041
281.00	0.000	0.042	0.041	0.041	0.039	0.040	0.042	0.040	0.038	0.040	0.041
282.00	0.000	0.042	0.040	0.041	0.038	0.039	0.042	0.039	0.038	0.039	0.040
283.00	0.000	0.041	0.040	0.040	0.037	0.039	0.041	0.039	0.037	0.039	0.039
284.00	0.000	0.040	0.039	0.039	0.036	0.038	0.040	0.038	0.036	0.038	0.038
285.00	0.000	0.039	0.038	0.038	0.036	0.037	0.039	0.037	0.036	0.037	0.038
286.00	0.000	0.038	0.037	0.037	0.035	0.036	0.039	0.036	0.035	0.036	0.037
287.00	0.000	0.037	0.036	0.036	0.034	0.035	0.038	0.035	0.034	0.035	0.036
288.00	0.000	0.037	0.036	0.036	0.033	0.035	0.037	0.035	0.033	0.035	0.035
289.00	0.000	0.036	0.035	0.035	0.033	0.034	0.036	0.034	0.033	0.034	0.035
290.00	0.000	0.035	0.034	0.034	0.032	0.033	0.035	0.033	0.032	0.033	0.034
291.00	0.000	0.034	0.033	0.033	0.031	0.032	0.034	0.033	0.031	0.032	0.033
292.00	0.000	0.034	0.033	0.032	0.031	0.032	0.034	0.032	0.031	0.032	0.032
293.00	0.000	0.033	0.032	0.032	0.030	0.031	0.033	0.031	0.030	0.031	0.032
294.00	0.000	0.032	0.031	0.031	0.029	0.030	0.032	0.030	0.029	0.030	0.031
295.00	-0.000	0.031	0.031	0.030	0.028	0.029	0.032	0.030	0.029	0.030	0.030
296.00	-0.000	0.031	0.030	0.029	0.028	0.029	0.031	0.029	0.028	0.029	0.030
297.00	-0.000	0.030	0.029	0.029	0.027	0.028	0.030	0.029	0.027	0.028	0.029
298.00	0.000	0.030	0.029	0.028	0.027	0.028	0.030	0.028	0.027	0.028	0.029
299.00	0.000	0.029	0.028	0.027	0.026	0.027	0.029	0.027	0.026	0.027	0.028
300.00	0.000	0.028	0.027	0.027	0.026	0.026	0.028	0.027	0.026	0.027	0.027
301.00	0.000	0.028	0.027	0.026	0.025	0.026	0.028	0.026	0.025	0.026	0.027
302.00	0.000	0.027	0.026	0.025	0.025	0.025	0.027	0.026	0.025	0.026	0.026
303.00	0.000	0.027	0.026	0.025	0.024	0.025	0.026	0.025	0.024	0.025	0.026
304.00	0.000	0.026	0.025	0.024	0.023	0.024	0.026	0.024	0.024	0.024	0.025
305.00	0.000	0.025	0.025	0.023	0.023	0.024	0.026	0.024	0.023	0.024	0.024
306.00	-0.000	0.025	0.024	0.023	0.022	0.023	0.025	0.023	0.023	0.023	0.024
307.00	0.000	0.025	0.024	0.023	0.022	0.023	0.025	0.023	0.022	0.023	0.023
308.00	-0.000	0.024	0.023	0.022	0.021	0.022	0.024	0.022	0.022	0.022	0.023
309.00	-0.000	0.023	0.023	0.021	0.021	0.022	0.023	0.022	0.021	0.022	0.022
310.00	-0.000	0.023	0.022	0.021	0.020	0.021	0.023	0.022	0.021	0.021	0.022
311.00	-0.000	0.022	0.022	0.021	0.020	0.021	0.023	0.021	0.021	0.021	0.021
312.00	-0.000	0.022	0.021	0.020	0.020	0.020	0.022	0.021	0.020	0.021	0.021
313.00	-0.000	0.021	0.021	0.020	0.020	0.020	0.022	0.021	0.020	0.021	0.021
314.00	0.000	0.021	0.021	0.020	0.019	0.020	0.021	0.020	0.020	0.020	0.021
315.00	-0.000	0.021	0.020	0.019	0.019	0.019	0.021	0.020	0.019	0.020	0.020
316.00	-0.000	0.020	0.020	0.018	0.018	0.019	0.020	0.019	0.019	0.019	0.019
317.00	-0.000	0.020	0.019	0.018	0.018	0.018	0.020	0.019	0.018	0.019	0.019
318.00	-0.000	0.019	0.019	0.018	0.018	0.018	0.020	0.018	0.018	0.018	0.019
319.00	-0.000	0.019	0.019	0.017	0.017	0.018	0.019	0.018	0.018	0.018	0.019
320.00	-0.000	0.019	0.019	0.017	0.017	0.017	0.019	0.018	0.018	0.018	0.018
321.00	-0.000	0.019	0.018	0.017	0.017	0.017	0.019	0.018	0.017	0.018	0.018
322.00	-0.000	0.018	0.018	0.017	0.016	0.017	0.018	0.017	0.017	0.018	0.018
323.00	-0.000	0.018	0.017	0.016	0.016	0.017	0.018	0.017	0.016	0.017	0.017
324.00	0.000	0.018	0.017	0.016	0.016	0.017	0.018	0.017	0.016	0.017	0.017
325.00	0.000	0.018	0.017	0.016	0.016	0.016	0.018	0.017	0.016	0.016	0.017
326.00	-0.000	0.017	0.017	0.015	0.015	0.016	0.017	0.016	0.016	0.016	0.017
327.00	-0.000	0.017	0.016	0.015	0.015	0.015	0.016	0.016	0.015	0.016	0.016
328.00	-0.000	0.016	0.016	0.015	0.015	0.015	0.016	0.015	0.015	0.015	0.016
329.00	0.000	0.016	0.016	0.014	0.014	0.015	0.016	0.015	0.015	0.015	0.015
330.00	0.000	0.016	0.015	0.014	0.014	0.014	0.016	0.015	0.014	0.015	0.015
331.00	-0.000	0.015	0.015	0.014	0.014	0.014	0.016	0.015	0.014	0.015	0.015
332.00	0.000	0.015	0.015	0.013	0.013	0.014	0.015	0.014	0.014	0.014	0.014
333.00	-0.000	0.015	0.015	0.013	0.013	0.014	0.015	0.014	0.014	0.014	0.014
334.00	0.000	0.015	0.014	0.013	0.013	0.013	0.015	0.014	0.013	0.014	0.014
335.00	-0.000	0.014	0.014	0.013	0.013	0.013	0.014	0.014	0.013	0.013	0.014
336.00	-0.000	0.014	0.014	0.012	0.012	0.013	0.014	0.013	0.013	0.013	0.013
337.00	0.000	0.014	0.013	0.012	0.012	0.012	0.014	0.013	0.013	0.013	0.013
338.00	0.000	0.014	0.013	0.012	0.012	0.012	0.014	0.013	0.013	0.013	0.013
339.00	-0.000	0.013	0.013	0.012	0.012	0.012	0.014	0.013	0.012	0.013	0.013
340.00	0.001	0.014	0.014	0.013	0.013	0.014	0.015	0.014	0.014	0.014	0.014
341.00	0.000	0.013	0.013	0.012	0.012	0.012	0.013	0.013	0.012	0.012	0.012
342.00	-0.000	0.013	0.012	0.011	0.011	0.012	0.013	0.012	0.011	0.012	0.012
343.00	-0.001	0.012	0.012	0.011	0.011	0.011	0.012	0.012	0.011	0.011	0.012
344.00	-0.000	0.012	0.012	0.011	0.011	0.011	0.012	0.011	0.011	0.011	0.011
345.00	-0.000	0.012	0.012	0.010	0.010	0.011	0.012	0.011	0.011	0.011	0.011
346.00	-0.000	0.012	0.011	0.010	0.010	0.011	0.012	0.011	0.010	0.011	0.011
347.00	-0.000	0.012	0.011	0.010	0.010	0.010	0.012	0.011	0.011	0.011	0.011
348.00	-0.000	0.011	0.011	0.010	0.010	0.010	0.011	0.010	0.010	0.010	0.011
349.00	0.000	0.011	0.011	0.010	0.010	0.010	0.011	0.010	0.010	0.010	0.010
350.00	0.000	0.011	0.011	0.010	0.010	0.010	0.011	0.010	0.010	0.011	0.011
351.00	-0.000	0.010	0.010	0.009	0.009	0.009	0.011	0.010	0.010	0.010	0.010
352.00	-0.000	0.010	0.010	0.009	0.009	0.009	0.011	0.010	0.009	0.010	0.010
353.00	-0.000	0.010	0.010	0.009	0.009	0.009	0.011	0.010	0.010	0.010	0.010
354.00	-0.000	0.010	0.010	0.009	0.009	0.009	0.010	0.009	0.009	0.009	0.009
355.00	-0.000	0.010	0.010	0.009	0.008	0.009	0.010	0.009	0.009	0.009	0.009
356.00	-0.000	0.010	0.009	0.008	0.008	0.009	0.010	0.009	0.009	0.009	0.009
357.00	0.000	0.009	0.009	0.008	0.008	0.009	0.010	0.009	0.009	0.009	0.009
358.00	-0.000	0.009	0.009	0.008	0.008	0.008	0.010	0.009	0.009	0.009	0.009
359.00	0.000	0.009	0.009	0.008	0.008	0.008	0.009	0.009	0.009	0.009	0.009
360.00	-0.000	0.009	0.009	0.008	0.008	0.008	0.009	0.008	0.008	0.008	0.009
361.00	-0.000	0.009	0.009	0.008	0.008	0.008	0.009	0.008	0.008	0.008	0.008
362.00	-0.000	0.009	0.008	0.007	0.008	0.007	0.009	0.008	0.008	0.008	0.008
363.00	-0.000	0.008	0.008	0.007	0.007	0.008	0.008	0.008	0.008	0.008	0.008
364.00	-0.000	0.008	0.008	0.007	0.007	0.007	0.008	0.008	0.008	0.008	0.008
365.00	-0.000	0.008	0.008	0.007	0.007	0.007	0.009	0.008	0.007	0.008	0.008
366.00	-0.000	0.008	0.008	0.007	0.007	0.007	0.008	0.008	0.007	0.007	0.008
367.00	-0.000	0.008	0.008	0.007	0.007	0.007	0.008	0.008	0.007	0.007	0.008
368.00	-0.000	0.008	0.007	0.007	0.007	0.007	0.008	0.007	0.007	0.007	0.007
369.00	-0.000	0.007	0.007	0.006	0.007	0.007	0.008	0.007	0.007	0.007	0.007
370.00	-0.000	0.007	0.007	0.006	0.006	0.006	0.007	0.007	0.007	0.007	0.007
371.00	-0.000	0.007	0.007	0.006	0.006	0.007	0.008	0.007	0.007	0.007	0.007
372.00	-0.000	0.007	0.007	0.006	0.006	0.006	0.007	0.006	0.007	0.007	0.007
373.00	0.000	0.007	0.007	0.006	0.006	0.006	0.007	0.006	0.006	0.007	0.007
374.00	-0.000	0.007	0.007	0.006	0.006	0.006	0.007	0.006	0.006	0.006	0.006
375.00	-0.000	0.007	0.007	0.006	0.006	0.006	0.007	0.006	0.006	0.006	0.006
376.00	-0.000	0.007	0.007	0.006	0.006	0.006	0.007	0.006	0.006	0.006	0.006
377.00	-0.000	0.006	0.006	0.006	0.006	0.006	0.007	0.006	0.006	0.006	0.006
378.00	-0.000	0.006	0.006	0.005	0.005	0.006	0.007	0.006	0.006	0.006	0.006
379.00	-0.000	0.006	0.006	0.005	0.005	0.006	0.006	0.006	0.006	0.006	0.006
380.00	-0.000	0.006	0.006	0.005	0.005	0.005	0.006	0.006	0.005	0.006	0.006
381.00	-0.000	0.006	0.006	0.005	0.005	0.005	0.006	0.005	0.005	0.005	0.005
382.00	-0.000	0.006	0.006	0.005	0.005	0.005	0.006	0.005	0.005	0.005	0.005
383.00	-0.000	0.006	0.005	0.005	0.005	0.005	0.006	0.005	0.005	0.005	0.005
384.00	-0.000	0.006	0.005	0.005	0.005	0.005	0.006	0.005	0.005	0.005	0.005
385.00	-0.000	0.005	0.005	0.005	0.005	0.005	0.006	0.005	0.005	0.005	0.005
386.00	-0.000	0.005	0.005	0.005	0.005	0.005	0.006	0.005	0.005	0.005	0.005
387.00	-0.000	0.005	0.005	0.005	0.005	0.005	0.006	0.005	0.005	0.005	0.005
388.00	-0.000	0.005	0.005	0.005	0.005	0.005	0.006	0.005	0.005	0.005	0.005
389.00	-0.000	0.005	0.005	0.004	0.004	0.004	0.005	0.005	0.005	0.005	0.005
390.00	-0.000	0.005	0.005	0.004	0.004	0.004	0.005	0.005	0.005	0.005	0.005
391.00	-0.000	0.005	0.005	0.004	0.004	0.004	0.005	0.004	0.004	0.005	0.005
392.00	-0.000	0.005	0.005	0.004	0.004	0.004	0.005	0.004	0.004	0.004	0.004
393.00	-0.000	0.005	0.004	0.004	0.004	0.004	0.005	0.004	0.004	0.004	0.004
394.00	-0.000	0.004	0.004	0.004	0.004	0.004	0.005	0.004	0.004	0.004	0.004
395.00	-0.000	0.004	0.004	0.004	0.004	0.004	0.005	0.004	0.004	0.004	0.004
396.00	-0.000	0.004	0.004	0.004	0.004	0.004	0.005	0.004	0.004	0.004	0.004
397.00	-0.000	0.004	0.004	0.004	0.004	0.004	0.005	0.004	0.004	0.004	0.004
398.00	-0.000	0.004	0.004	0.004	0.004	0.004	0.004	0.004	0.004	0.004	0.004
399.00	-0.000	0.004	0.004	0.003	0.003	0.003	0.004	0.004	0.004	0.004	0.004
400.00	-0.000	0.004	0.004	0.004	0.004	0.004	0.004	0.004	0.004	0.004	0.004
401.00	-0.000	0.004	0.004	0.003	0.003	0.004	0.004	0.004	0.004	0.004	0.004
402.00	-0.000	0.004	0.004	0.003	0.003	0.003	0.004	0.004	0.003	0.004	0.004
403.00	-0.000	0.004	0.004	0.003	0.003	0.003	0.004	0.003	0.003	0.003	0.003
404.00	-0.000	0.004	0.004	0.003	0.003	0.003	0.004	0.003	0.003	0.003	0.003
405.00	-0.000	0.004	0.004	0.003	0.003	0.003	0.004	0.003	0.003	0.003	0.003
406.00	-0.000	0.003	0.004	0.003	0.003	0.003	0.004	0.003	0.003	0.003	0.003
407.00	-0.000	0.003	0.004	0.003	0.003	0.003	0.004	0.003	0.003	0.003	0.003
408.00	-0.000	0.003	0.004	0.003	0.003	0.003	0.004	0.003	0.003	0.003	0.003
409.00	-0.000	0.003	0.003	0.003	0.003	0.003	0.004	0.003	0.003	0.003	0.003
410.00	-0.000	0.003	0.003	0.003	0.003	0.003	0.004	0.003	0.003	0.003	0.003
411.00	-0.000	0.003	0.003	0.003	0.003	0.003	0.004	0.003	0.003	0.003	0.003
412.00	-0.000	0.003	0.003	0.003	0.003	0.003	0.004	0.003	0.003	0.003	0.003
413.00	-0.000	0.003	0.003	0.003	0.003	0.003	0.003	0.003	0.003	0.003	0.003
414.00	-0.000	0.003	0.003	0.003	0.003	0.003	0.003	0.003	0.003	0.003	0.003
415.00	-0.000	0.003	0.003	0.003	0.003	0.003	0.003	0.003	0.003	0.003	0.003
416.00	0.000	0.003	0.003	0.003	0.003	0.003	0.003	0.003	0.003	0.003	0.003
417.00	-0.000	0.003	0.003	0.002	0.002	0.002	0.003	0.003	0.003	0.003	0.003
418.00	-0.000	0.003	0.003	0.002	0.002	0.002	0.003	0.003	0.002	0.003	0.003
419.00	-0.000	0.003	0.003	0.002	0.002	0.002	0.003	0.002	0.002	0.003	0.003
420.00	-0.000	0.003	0.003	0.002	0.002	0.002	0.003	0.003	0.002	0.003	0.003
421.00	-0.000	0.003	0.003	0.002	0.002	0.002	0.003	0.002	0.002	0.002	0.002
422.00	-0.000	0.003	0.003	0.002	0.002	0.002	0.003	0.002	0.002	0.002	0.002
423.00	-0.000	0.003	0.003	0.002	0.002	0.002	0.003	0.002	0.002	0.003	0.002
424.00	-0.000	0.003	0.003	0.002	0.002	0.002	0.003	0.002	0.002	0.002	0.002
425.00	-0.000	0.003	0.003	0.002	0.002	0.002	0.003	0.002	0.002	0.002	0.002
426.00	-0.000	0.002	0.003	0.002	0.002	0.002	0.003	0.002	0.002	0.002	0.002
427.00	-0.000	0.002	0.003	0.002	0.002	0.002	0.003	0.002	0.002	0.002	0.002
428.00	-0.000	0.002	0.002	0.002	0.002	0.002	0.003	0.002	0.002	0.002	0.002
429.00	-0.000	0.002	0.002	0.002	0.002	0.002	0.003	0.002	0.002	0.002	0.002
430.00	-0.000	0.002	0.002	0.002	0.002	0.002	0.002	0.002	0.002	0.002	0.002
431.00	-0.000	0.002	0.002	0.002	0.002	0.002	0.002	0.002	0.002	0.002	0.002
432.00	-0.000	0.002	0.002	0.002	0.002	0.002	0.002	0.002	0.002	0.002	0.002
433.00	-0.000	0.002	0.002	0.002	0.002	0.002	0.002	0.002	0.002	0.002	0.002
434.00	-0.000	0.002	0.002	0.002	0.001	0.002	0.002	0.002	0.002	0.002	0.002
435.00	-0.000	0.002	0.002	0.002	0.001	0.002	0.002	0.002	0.002	0.002	0.002
436.00	-0.000	0.002	0.002	0.002	0.002	0.002	0.002	0.002	0.002	0.002	0.002
437.00	-0.000	0.002	0.002	0.002	0.002	0.002	0.002	0.002	0.002	0.002	0.002
438.00	-0.000	0.002	0.002	0.001	0.001	0.001	0.002	0.002	0.002	0.002	0.002
439.00	-0.000	0.002	0.002	0.001	0.001	0.001	0.002	0.002	0.002	0.002	0.002
440.00	-0.000	0.002	0.002	0.001	0.001	0.001	0.002	0.001	0.002	0.002	0.002
441.00	-0.000	0.002	0.002	0.001	0.001	0.001	0.002	0.001	0.001	0.002	0.001
442.00	-0.000	0.002	0.002	0.001	0.001	0.001	0.002	0.001	0.002	0.001	0.001
443.00	-0.000	0.002	0.002	0.001	0.001	0.001	0.002	0.001	0.002	0.001	0.001
444.00	-0.000	0.001	0.002	0.001	0.001	0.001	0.002	0.001	0.001	0.001	0.001
445.00	-0.000	0.001	0.002	0.001	0.001	0.001	0.002	0.001	0.001	0.001	0.001
446.00	-0.000	0.001	0.002	0.001	0.001	0.001	0.002	0.001	0.001	0.001	0.001
447.00	-0.000	0.001	0.002	0.001	0.001	0.001	0.002	0.001	0.001	0.001	0.001
448.00	-0.000	0.001	0.002	0.001	0.001	0.001	0.002	0.001	0.001	0.001	0.001
449.00	-0.000	0.001	0.002	0.001	0.001	0.001	0.002	0.001	0.001	0.001	0.001
450.00	-0.000	0.001	0.001	0.001	0.001	0.001	0.002	0.001	0.001	0.001	0.001
451.00	-0.000	0.001	0.001	0.001	0.001	0.001	0.002	0.001	0.001	0.001	0.001
452.00	-0.000	0.001	0.001	0.001	0.001	0.001	0.002	0.001	0.001	0.001	0.001
453.00	-0.000	0.001	0.001	0.001	0.001	0.001	0.002	0.001	0.001	0.001	0.001
454.00	-0.000	0.001	0.002	0.001	0.001	0.001	0.002	0.001	0.001	0.001	0.001
455.00	-0.000	0.001	0.001	0.001	0.001	0.001	0.002	0.001	0.001	0.001	0.001
456.00	-0.000	0.001	0.001	0.001	0.001	0.001	0.001	0.001	0.001	0.001	0.001
457.00	-0.000	0.001	0.001	0.001	0.001	0.001	0.001	0.001	0.001	0.001	0.001
458.00	-0.000	0.001	0.001	0.001	0.001	0.001	0.001	0.001	0.001	0.001	0.001
459.00	-0.000	0.001	0.001	0.001	0.001	0.001	0.001	0.001	0.001	0.001	0.001
460.00	-0.000	0.001	0.001	0.001	0.001	0.001	0.001	0.001	0.001	0.001	0.001
461.00	-0.000	0.001	0.001	0.001	0.001	0.001	0.001	0.001	0.001	0.001	0.001
462.00	-0.000	0.001	0.001	0.001	0.001	0.001	0.001	0.001	0.001	0.001	0.001
463.00	-0.000	0.001	0.001	0.001	0.001	0.001	0.001	0.001	0.001	0.001	0.001
464.00	-0.000	0.001	0.001	0.001	0.001	0.001	0.001	0.001	0.001	0.001	0.001
465.00	-0.000	0.001	0.001	0.001	0.001	0.001	0.001	0.001	0.001	0.001	0.001
466.00	-0.000	0.001	0.001	0.001	0.001	0.001	0.001	0.001	0.001	0.001	0.001
467.00	-0.000	0.001	0.001	0.001	0.001	0.001	0.001	0.001	0.001	0.001	0.001
468.00	-0.000	0.001	0.001	0.001	0.001	0.001	0.001	0.001	0.001	0.001	0.001
469.00	-0.000	0.001	0.001	0.001	0.001	0.001	0.001	0.001	0.001	0.001	0.001
470.00	-0.000	0.001	0.001	0.001	0.001	0.001	0.001	0.001	0.001	0.001	0.001
471.00	-0.000	0.001	0.001	0.001	0.001	0.000	0.001	0.001	0.001	0.001	0.001
472.00	-0.000	0.001	0.001	0.001	0.001	0.001	0.001	0.001	0.001	0.001	0.001
473.00	-0.000	0.001	0.001	0.001	0.001	0.001	0.001	0.001	0.001	0.001	0.001
474.00	-0.000	0.001	0.001	0.001	0.001	0.001	0.001	0.001	0.001	0.001	0.001
475.00	-0.000	0.001	0.001	0.001	0.000	0.000	0.001	0.001	0.001	0.001	0.001
476.00	-0.000	0.001	0.001	0.001	0.000	0.000	0.001	0.001	0.001	0.001	0.001
477.00	-0.000	0.001	0.001	0.000	0.000	0.000	0.001	0.001	0.001	0.001	0.001
478.00	-0.000	0.001	0.001	0.000	0.000	0.000	0.001	0.000	0.001	0.001	0.000
479.00	-0.000	0.001	0.001	0.000	0.000	0.000	0.001	0.001	0.001	0.001	0.001
480.00	-0.000	0.001	0.001	0.000	0.000	0.000	0.001	0.001	0.001	0.001	0.001
481.00	-0.000	0.001	0.001	0.000	0.000	0.000	0.001	0.000	0.001	0.001	0.001
482.00	-0.000	0.001	0.001	0.000	0.000	0.000	0.001	0.000	0.001	0.001	0.000
483.00	-0.000	0.000	0.001	0.000	0.000	0.000	0.001	0.000	0.001	0.000	0.000
484.00	-0.000	0.000	0.001	0.000	0.000	0.000	0.001	0.000	0.001	0.000	0.000
485.00	-0.000	0.000	0.001	0.000	0.000	0.000	0.001	0.000	0.001	0.000	0.000
486.00	-0.000	0.000	0.001	0.000	0.000	0.000	0.001	0.000	0.001	0.000	0.000
487.00	-0.000	0.000	0.001	0.000	0.000	0.000	0.001	0.000	0.000	0.000	0.000
488.00	-0.000	0.000	0.001	0.000	0.000	0.000	0.001	0.000	0.000	0.000	0.000
489.00	-0.000	0.000	0.001	0.000	0.000	0.000	0.001	0.000	0.001	0.000	0.000
490.00	-0.000	0.000	0.001	0.000	0.000	0.000	0.001	0.000	0.001	0.000	0.000
491.00	-0.000	0.000	0.001	0.000	0.000	0.000	0.001	0.000	0.001	0.000	0.000
492.00	-0.000	0.000	0.001	0.000	0.000	0.000	0.001	0.000	0.000	0.000	0.000
493.00	-0.000	0.000	0.001	0.000	0.000	0.000	0.001	0.000	0.000	0.000	0.000
494.00	-0.000	0.000	0.001	0.000	0.000	0.000	0.001	0.000	0.000	0.000	0.000
495.00	-0.000	0.000	0.001	0.000	0.000	0.000	0.001	0.000	0.000	0.000	0.000
496.00	-0.000	0.000	0.001	0.000	0.000	0.000	0.001	0.000	0.000	0.000	0.000
497.00	-0.000	0.000	0.001	0.000	0.000	0.000	0.001	0.000	0.000	0.000	0.000
498.00	-0.000	0.000	0.001	0.000	0.000	0.000	0.001	0.000	0.000	0.000	0.000
499.00	-0.000	0.000	0.001	0.000	0.000	0.000	0.001	0.000	0.000	0.000	0.000
500.00	-0.000	0.000	0.001	0.000	0.000	0.000	0.001	0.000	0.000	0.000	0.000
501.00	-0.000	0.000	0.001	0.000	0.000	0.000	0.001	0.000	0.000	0.000	0.000
502.00	-0.000	0.000	0.000	0.000	0.000	0.000	0.001	0.000	0.000	0.000	0.000
503.00	-0.000	0.000	0.001	0.000	0.000	0.000	0.001	0.000	0.000	0.000	0.000
504.00	-0.000	0.000	0.001	0.000	0.000	0.000	0.001	0.000	0.000	0.000	0.000
505.00	-0.000	0.000	0.000	0.000	0.000	0.000	0.001	0.000	0.000	0.000	0.000
506.00	-0.000	0.000	0.000	0.000	0.000	0.000	0.001	0.000	0.000	0.000	0.000
507.00	-0.000	0.000	0.000	0.000	0.000	0.000	0.001	0.000	0.000	0.000	0.000
508.00	-0.000	0.000	0.000	0.000	0.000	0.000	0.000	0.000	0.000	0.000	0.000
509.00	-0.000	0.000	0.000	0.000	0.000	0.000	0.000	0.000	0.000	0.000	0.000
510.00	-0.000	0.000	0.000	0.000	0.000	0.000	0.000	0.000	0.000	0.000	0.000
511.00	-0.000	0.000	0.000	0.000	0.000	0.000	0.000	0.000	0.000	0.000	0.000
512.00	-0.000	0.000	0.000	0.000	0.000	0.000	0.000	0.000	0.000	0.000	0.000
513.00	-0.000	0.000	0.000	0.000	0.000	0.000	0.000	0.000	0.000	0.000	0.000
514.00	-0.000	0.000	0.000	0.000	0.000	0.000	0.000	0.000	0.000	0.000	0.000
515.00	-0.000	0.000	0.000	0.000	0.000	0.000	0.000	0.000	0.000	0.000	0.000
516.00	-0.000	0.000	0.000	0.000	-0.000	0.000	0.000	0.000	0.000	0.000	0.000
517.00	-0.000	0.000	0.000	0.000	0.000	0.000	0.000	0.000	0.000	0.000	0.000
518.00	-0.000	0.000	0.000	0.000	-0.000	0.000	0.000	0.000	0.000	0.000	0.000
519.00	-0.000	0.000	0.000	0.000	-0.000	0.000	0.000	0.000	0.000	0.000	0.000
520.00	-0.000	0.000	0.000	0.000	-0.000	0.000	0.000	0.000	0.000	0.000	0.000
521.00	-0.000	0.000	0.000	-0.000	-0.000	0.000	0.000	0.000	0.000	0.000	0.000
522.00	-0.000	0.000	0.000	0.000	-0.000	-0.000	0.000	0.000	0.000	0.000	0.000
523.00	-0.000	0.000	0.000	-0.000	-0.000	-0.000	0.000	0.000	0.000	0.000	0.000
524.00	-0.000	0.000	0.000	-0.000	-0.000	-0.000	0.000	-0.000	0.000	0.000	0.000
525.00	-0.000	0.000	0.000	0.000	-0.000	-0.000	0.000	-0.000	0.000	0.000	0.000
526.00	-0.000	0.000	0.000	0.000	-0.000	-0.000	0.000	0.000	0.000	0.000	0.000
527.00	-0.000	0.000	0.000	0.000	-0.000	-0.000	0.000	0.000	0.000	0.000	0.000
528.00	-0.000	0.000	0.000	0.000	-0.000	-0.000	0.000	0.000	0.000	0.000	0.000
529.00	-0.000	0.000	0.000	0.000	-0.000	-0.000	0.000	-0.000	0.000	0.000	0.000
530.00	-0.000	0.000	0.000	0.000	-0.000	-0.000	0.000	-0.000	0.000	0.000	0.000
531.00	-0.000	0.000	0.000	-0.000	-0.000	-0.000	0.000	-0.000	0.000	0.000	0.000
532.00	-0.000	0.000	0.000	-0.000	-0.000	-0.000	0.000	-0.000	0.000	0.000	0.000
533.00	-0.000	0.000	0.000	-0.000	-0.000	-0.000	0.000	-0.000	0.000	0.000	0.000
534.00	-0.000	0.000	0.000	0.000	-0.000	-0.000	0.000	-0.000	0.000	0.000	-0.000
535.00	0.000	0.000	0.000	0.000	0.000	-0.000	0.000	0.000	0.000	0.000	0.000
536.00	0.001	0.001	0.001	0.001	0.001	0.001	0.001	0.001	0.001	0.001	0.001
537.00	-0.000	0.000	0.000	0.000	0.000	-0.000	0.000	0.000	0.000	0.000	0.000
538.00	-0.000	-0.000	0.000	-0.000	-0.000	-0.000	0.000	-0.000	-0.000	-0.000	-0.000
539.00	-0.000	-0.000	0.000	-0.000	-0.000	-0.000	0.000	-0.000	-0.000	-0.000	-0.000
540.00	-0.000	-0.000	0.000	-0.000	-0.000	-0.000	0.000	-0.000	-0.000	-0.000	-0.000
541.00	-0.000	-0.000	0.000	-0.000	-0.000	-0.000	0.000	-0.000	-0.000	-0.000	-0.000
542.00	-0.000	-0.000	0.000	-0.000	-0.000	-0.000	0.000	-0.000	0.000	-0.000	-0.000
543.00	-0.000	-0.000	0.000	-0.000	-0.000	-0.000	0.000	-0.000	-0.000	-0.000	-0.000
544.00	-0.000	-0.000	0.000	-0.000	-0.000	-0.000	0.000	-0.000	-0.000	-0.000	-0.000
545.00	-0.000	-0.000	0.000	-0.000	-0.000	-0.000	0.000	-0.000	-0.000	-0.000	-0.000
546.00	-0.000	-0.000	0.000	-0.000	-0.000	-0.000	0.000	-0.000	-0.000	-0.000	-0.000
547.00	-0.000	-0.000	0.000	-0.000	-0.000	-0.001	-0.000	-0.000	-0.000	-0.000	-0.000
548.00	-0.000	-0.000	0.000	-0.000	-0.000	-0.000	0.000	-0.000	-0.000	-0.000	-0.000
549.00	-0.000	-0.000	0.000	-0.000	-0.000	-0.000	0.000	-0.000	0.000	-0.000	-0.000
550.00	-0.000	-0.000	0.000	-0.000	-0.000	-0.000	0.000	-0.000	0.000	-0.000	-0.000
551.00	-0.000	-0.000	0.000	-0.000	-0.000	-0.000	0.000	-0.000	-0.000	-0.000	-0.000
552.00	-0.000	-0.000	-0.000	-0.000	-0.000	-0.000	0.000	-0.000	-0.000	-0.000	-0.000
553.00	-0.000	-0.000	0.000	-0.000	-0.000	-0.000	0.000	-0.000	-0.000	-0.000	-0.000
554.00	-0.000	-0.000	0.000	-0.000	-0.000	-0.000	-0.000	-0.000	0.000	-0.000	-0.000
555.00	-0.000	-0.000	0.000	-0.000	-0.000	-0.000	0.000	-0.000	0.000	-0.000	-0.000
556.00	-0.000	-0.000	0.000	-0.000	-0.000	-0.001	-0.000	-0.000	-0.000	-0.000	-0.000
557.00	-0.000	-0.000	0.000	-0.000	-0.000	-0.000	-0.000	-0.000	-0.000	-0.000	-0.000
558.00	-0.000	-0.000	0.000	-0.000	-0.000	-0.000	0.000	-0.000	-0.000	-0.000	-0.000
559.00	-0.000	-0.000	0.000	-0.000	-0.000	-0.000	0.000	-0.000	-0.000	-0.000	-0.000
560.00	-0.000	-0.000	0.000	-0.000	-0.000	-0.000	0.000	-0.000	-0.000	-0.000	-0.000
561.00	-0.000	-0.000	0.000	-0.000	-0.000	-0.000	0.000	-0.000	-0.000	-0.000	-0.000
562.00	-0.000	-0.000	-0.000	-0.000	-0.000	-0.000	-0.000	-0.000	-0.000	-0.000	-0.000
563.00	-0.000	-0.000	-0.000	-0.000	-0.000	-0.000	-0.000	-0.000	0.000	-0.000	-0.000
564.00	-0.000	-0.000	-0.000	-0.000	-0.000	-0.000	-0.000	-0.000	-0.000	-0.000	-0.000
565.00	-0.000	-0.000	0.000	-0.000	-0.000	-0.000	-0.000	-0.000	-0.000	-0.000	-0.000
566.00	-0.000	-0.000	0.000	-0.000	-0.000	-0.000	0.000	-0.000	-0.000	-0.000	-0.000
567.00	-0.000	-0.000	0.000	-0.000	-0.000	-0.000	0.000	-0.000	-0.000	-0.000	-0.000
568.00	-0.000	-0.000	0.000	-0.000	-0.000	-0.000	0.000	-0.000	-0.000	-0.000	-0.000
569.00	-0.000	-0.000	0.000	-0.000	-0.000	-0.000	-0.000	-0.000	-0.000	-0.000	-0.000
570.00	-0.000	-0.000	0.000	-0.000	-0.000	-0.000	-0.000	-0.000	-0.000	-0.000	-0.000
571.00	-0.000	-0.000	-0.000	-0.000	-0.000	-0.000	-0.000	-0.000	-0.000	-0.000	-0.000
572.00	-0.000	-0.000	-0.000	-0.000	-0.000	-0.000	-0.000	-0.000	-0.000	-0.000	-0.000
573.00	-0.000	-0.000	-0.000	-0.000	-0.000	-0.000	-0.000	-0.000	-0.000	-0.000	-0.000
574.00	-0.000	-0.000	-0.000	-0.000	-0.000	-0.000	-0.000	-0.000	-0.000	-0.000	-0.000
575.00	-0.000	-0.000	-0.000	-0.000	-0.000	-0.000	-0.000	-0.000	-0.000	-0.000	-0.000
576.00	-0.000	-0.000	-0.000	-0.000	-0.000	-0.000	-0.000	-0.000	-0.000	-0.000	-0.000
577.00	-0.000	-0.000	-0.000	-0.000	-0.000	-0.000	-0.000	-0.000	-0.000	-0.000	-0.000
578.00	-0.000	-0.000	-0.000	-0.000	-0.000	-0.000	-0.000	-0.000	-0.000	-0.000	-0.000
579.00	-0.000	-0.000	-0.000	-0.000	-0.000	-0.000	-0.000	-0.000	-0.000	-0.000	-0.000
580.00	0.000	-0.000	0.000	-0.000	-0.000	-0.000	-0.000	-0.000	-0.000	-0.000	-0.000
581.00	-0.000	-0.000	0.000	-0.000	-0.000	-0.000	-0.000	-0.000	-0.000	-0.000	-0.000
582.00	-0.000	-0.000	-0.000	-0.000	-0.000	-0.000	-0.000	-0.000	-0.000	-0.000	-0.000
583.00	-0.000	-0.000	-0.000	-0.000	-0.000	-0.000	-0.000	-0.000	-0.000	0.000	-0.000
584.00	-0.000	-0.000	-0.000	-0.000	-0.000	-0.000	-0.000	-0.000	-0.000	-0.000	-0.000
585.00	-0.000	-0.000	-0.000	-0.000	-0.000	-0.000	-0.000	-0.000	-0.000	-0.000	-0.000
586.00	-0.000	-0.000	-0.000	-0.000	-0.000	-0.000	-0.000	-0.000	-0.000	-0.000	-0.000
587.00	-0.000	-0.000	-0.000	-0.000	-0.000	-0.000	-0.000	-0.000	-0.000	-0.000	-0.000
588.00	-0.000	-0.000	-0.000	-0.000	-0.000	-0.000	-0.000	-0.000	-0.000	-0.000	-0.000
589.00	-0.000	-0.000	-0.000	-0.000	-0.000	-0.001	-0.000	-0.000	-0.000	-0.000	-0.000
590.00	-0.000	-0.000	-0.000	-0.000	-0.000	-0.001	-0.000	-0.000	-0.000	-0.000	-0.000
591.00	-0.000	-0.000	-0.000	-0.000	-0.000	-0.000	-0.000	-0.000	-0.000	-0.000	-0.000
592.00	-0.000	-0.000	-0.000	-0.000	-0.000	-0.000	-0.000	-0.000	-0.000	-0.000	-0.000
593.00	-0.000	-0.000	-0.000	-0.000	-0.000	-0.000	-0.000	-0.000	-0.000	-0.000	-0.000
594.00	-0.000	-0.000	-0.000	-0.000	-0.000	-0.000	-0.000	-0.000	-0.000	-0.000	-0.000
595.00	-0.000	-0.000	-0.000	-0.000	-0.000	-0.000	-0.000	-0.000	-0.000	-0.000	-0.000
596.00	-0.000	-0.000	-0.000	-0.000	-0.000	-0.000	-0.000	-0.000	-0.000	-0.000	-0.000
597.00	-0.000	-0.000	-0.000	-0.000	-0.000	-0.000	-0.000	-0.000	-0.000	-0.000	-0.000
598.00	-0.000	-0.000	-0.000	-0.000	-0.000	-0.000	-0.000	-0.000	-0.000	-0.000	-0.000
599.00	-0.000	-0.000	-0.000	-0.000	-0.000	-0.000	-0.000	-0.000	-0.000	-0.000	-0.000
600.00	-0.000	-0.000	-0.000	-0.000	-0.000	-0.000	-0.000	-0.000	-0.000	-0.000	-0.000
601.00	-0.000	-0.000	-0.000	-0.000	-0.000	-0.000	-0.000	-0.000	-0.000	-0.000	-0.000
602.00	-0.000	-0.000	-0.000	-0.000	-0.000	-0.001	-0.000	-0.000	-0.000	-0.000	-0.000
603.00	-0.000	-0.000	-0.000	-0.000	-0.000	-0.001	-0.000	-0.000	-0.000	-0.000	-0.000
604.00	-0.000	-0.000	-0.000	-0.000	-0.000	-0.001	-0.000	-0.000	-0.000	-0.000	-0.000
605.00	-0.000	-0.000	-0.000	-0.000	-0.000	-0.001	-0.000	-0.000	-0.000	-0.000	-0.000
606.00	-0.000	-0.000	-0.000	-0.000	-0.000	-0.001	-0.000	-0.000	-0.000	-0.000	-0.000
607.00	-0.000	-0.000	-0.000	-0.000	-0.000	-0.001	-0.000	-0.000	-0.000	-0.000	-0.000
608.00	-0.000	-0.000	-0.000	-0.000	-0.001	-0.001	-0.000	-0.000	-0.000	-0.000	-0.000
609.00	-0.000	-0.001	-0.000	-0.000	-0.001	-0.001	-0.000	-0.001	-0.000	-0.000	-0.000
610.00	-0.000	-0.001	-0.000	-0.000	-0.000	-0.001	-0.000	-0.000	-0.000	-0.000	-0.000
611.00	-0.000	-0.001	-0.000	-0.000	-0.001	-0.001	-0.000	-0.000	-0.000	-0.000	-0.000
612.00	-0.000	-0.000	-0.000	-0.000	-0.000	-0.001	-0.000	-0.000	-0.000	-0.000	-0.000
613.00	-0.000	-0.000	-0.000	-0.000	-0.000	-0.001	-0.000	-0.000	-0.000	-0.000	-0.000
614.00	-0.000	-0.000	-0.000	-0.000	-0.000	-0.001	-0.000	-0.000	-0.000	-0.000	-0.000
615.00	-0.000	-0.000	-0.000	-0.000	-0.000	-0.001	-0.000	-0.000	-0.000	-0.000	-0.000
616.00	-0.000	-0.001	-0.000	-0.000	-0.000	-0.001	-0.000	-0.000	-0.000	-0.000	-0.000
617.00	-0.000	-0.001	-0.000	-0.000	-0.001	-0.001	-0.000	-0.000	-0.000	-0.001	-0.000
618.00	-0.000	-0.001	-0.000	-0.000	-0.001	-0.001	-0.000	-0.000	-0.000	-0.000	-0.000
619.00	-0.000	-0.001	-0.000	-0.000	-0.001	-0.001	-0.000	-0.001	-0.000	-0.000	-0.000
620.00	-0.000	-0.001	-0.000	-0.000	-0.000	-0.001	-0.000	-0.000	-0.000	-0.000	-0.000
621.00	-0.000	-0.001	-0.000	-0.000	-0.001	-0.001	-0.000	-0.000	-0.000	-0.000	-0.000
622.00	-0.000	-0.000	-0.000	-0.000	-0.000	-0.001	-0.000	-0.000	-0.000	-0.000	-0.000
623.00	-0.000	-0.000	-0.000	-0.000	-0.000	-0.001	-0.000	-0.000	-0.000	-0.000	-0.000
624.00	-0.000	-0.000	-0.000	-0.000	-0.000	-0.001	-0.000	-0.000	-0.000	-0.000	-0.000
625.00	-0.000	-0.001	-0.000	-0.000	-0.001	-0.001	-0.000	-0.001	-0.000	-0.000	-0.000
626.00	-0.000	-0.001	-0.000	-0.000	-0.001	-0.001	-0.000	-0.001	-0.000	-0.000	-0.000
627.00	-0.000	-0.001	-0.000	-0.000	-0.001	-0.001	-0.000	-0.000	-0.000	-0.001	-0.000
628.00	-0.000	-0.001	-0.000	-0.000	-0.000	-0.001	-0.000	-0.000	-0.000	-0.001	-0.000
629.00	-0.000	-0.001	-0.000	-0.000	-0.001	-0.001	-0.000	-0.000	-0.000	-0.000	-0.000
630.00	-0.000	-0.001	-0.000	-0.000	-0.001	-0.001	-0.000	-0.000	-0.000	-0.000	-0.000
631.00	-0.000	-0.001	-0.000	-0.000	-0.000	-0.001	-0.000	-0.000	-0.000	-0.000	-0.000
632.00	-0.000	-0.001	-0.000	-0.000	-0.000	-0.001	-0.000	-0.000	-0.000	-0.000	-0.000
633.00	-0.000	-0.000	-0.000	-0.000	-0.000	-0.001	-0.000	-0.000	-0.000	-0.000	-0.000
634.00	-0.000	-0.001	-0.000	-0.000	-0.001	-0.001	-0.000	-0.000	-0.000	-0.000	-0.000
635.00	-0.000	-0.000	-0.000	-0.000	-0.001	-0.001	-0.000	-0.000	-0.000	-0.000	-0.000
636.00	-0.000	-0.001	-0.000	-0.000	-0.001	-0.001	-0.000	-0.001	-0.000	-0.000	-0.000
637.00	-0.000	-0.001	-0.000	-0.000	-0.001	-0.001	-0.000	-0.001	-0.000	-0.000	-0.000
638.00	-0.000	-0.001	-0.000	-0.001	-0.001	-0.001	-0.000	-0.001	-0.000	-0.001	-0.000
639.00	-0.000	-0.001	-0.000	-0.001	-0.001	-0.001	-0.000	-0.001	-0.000	-0.000	-0.000
640.00	-0.000	-0.001	-0.000	-0.000	-0.001	-0.001	-0.000	-0.001	-0.000	-0.000	-0.001
641.00	-0.000	-0.001	-0.000	-0.001	-0.001	-0.001	-0.000	-0.001	-0.000	-0.001	-0.001
642.00	-0.000	-0.001	-0.000	-0.000	-0.001	-0.001	-0.000	-0.001	-0.000	-0.000	-0.000
643.00	-0.000	-0.001	-0.000	-0.000	-0.001	-0.001	-0.000	-0.001	-0.000	-0.000	-0.000
644.00	-0.000	-0.001	-0.000	-0.000	-0.001	-0.001	-0.000	-0.000	-0.000	-0.000	-0.000
645.00	-0.000	-0.001	-0.000	-0.000	-0.001	-0.001	-0.000	-0.000	-0.000	-0.000	-0.000
646.00	-0.000	-0.000	-0.000	-0.000	-0.001	-0.001	-0.000	-0.000	-0.000	-0.000	-0.000
647.00	-0.000	-0.000	-0.000	-0.000	-0.001	-0.001	-0.000	-0.000	-0.000	-0.000	-0.000
648.00	-0.000	-0.000	-0.000	-0.000	-0.001	-0.001	-0.000	-0.000	-0.000	-0.000	-0.000
649.00	-0.000	-0.000	-0.000	-0.000	-0.001	-0.000	-0.000	-0.000	-0.000	-0.000	-0.000
650.00	-0.000	-0.000	-0.000	-0.000	-0.001	-0.001	-0.000	-0.000	-0.000	-0.000	-0.000
651.00	-0.000	-0.001	-0.000	-0.000	-0.001	-0.001	-0.000	-0.001	-0.000	-0.000	-0.000
652.00	-0.000	-0.000	-0.000	-0.000	-0.001	-0.001	-0.000	-0.001	-0.000	-0.000	-0.000
653.00	-0.000	-0.000	-0.000	-0.000	-0.001	-0.001	-0.000	-0.001	-0.000	-0.000	-0.000
654.00	-0.000	-0.000	-0.000	-0.000	-0.001	-0.001	-0.000	-0.000	-0.000	-0.000	-0.000
655.00	-0.000	-0.000	-0.000	-0.000	-0.001	-0.001	-0.000	-0.000	-0.000	-0.000	-0.000
656.00	-0.000	-0.001	-0.000	-0.000	-0.001	-0.001	-0.000	-0.000	-0.000	-0.000	-0.000
657.00	-0.000	-0.001	-0.000	-0.000	-0.001	-0.001	-0.000	-0.000	-0.000	-0.000	-0.000
658.00	-0.000	-0.000	-0.000	-0.000	-0.001	-0.001	-0.000	-0.000	-0.000	-0.000	-0.000
659.00	-0.000	-0.000	-0.000	-0.000	-0.001	-0.001	-0.000	-0.000	-0.000	-0.000	-0.000
660.00	-0.000	-0.000	-0.000	-0.000	-0.001	-0.001	-0.000	-0.000	-0.000	-0.000	-0.000
661.00	0.000	-0.000	-0.000	-0.000	-0.001	-0.000	-0.000	-0.000	-0.000	-0.000	-0.000
662.00	-0.000	-0.000	-0.000	-0.000	-0.001	-0.000	-0.000	-0.000	-0.000	-0.000	-0.000
663.00	-0.000	-0.000	-0.000	-0.000	-0.001	-0.001	-0.000	-0.000	-0.000	-0.000	-0.000
664.00	-0.000	-0.000	-0.000	-0.000	-0.001	-0.001	-0.000	-0.000	-0.000	-0.000	-0.000
665.00	-0.000	-0.000	-0.000	-0.000	-0.001	-0.001	-0.000	-0.000	-0.000	-0.000	-0.000
666.00	-0.000	-0.000	-0.000	-0.000	-0.001	-0.001	-0.000	-0.000	-0.000	-0.000	-0.000
667.00	-0.000	-0.000	-0.000	-0.000	-0.001	-0.001	-0.000	-0.000	-0.000	-0.000	-0.000
668.00	-0.000	-0.000	-0.000	-0.000	-0.001	-0.001	-0.000	-0.000	-0.000	-0.000	-0.000
669.00	-0.000	-0.000	-0.000	-0.000	-0.001	-0.001	-0.000	-0.000	-0.000	-0.000	-0.000
670.00	-0.000	-0.000	-0.000	-0.000	-0.001	-0.000	-0.000	-0.000	-0.000	-0.000	-0.000
671.00	-0.000	-0.000	-0.000	-0.000	-0.001	-0.001	-0.000	-0.001	-0.000	-0.000	-0.000
672.00	-0.000	-0.000	-0.000	-0.000	-0.001	-0.000	-0.000	-0.000	-0.000	-0.000	-0.000
673.00	0.000	-0.000	-0.000	-0.000	-0.001	-0.000	-0.000	-0.000	-0.000	-0.000	-0.000
674.00	0.000	-0.000	-0.000	-0.000	-0.001	-0.000	-0.000	-0.000	-0.000	-0.000	-0.000
675.00	-0.000	-0.000	-0.000	-0.000	-0.001	-0.000	-0.000	-0.000	-0.000	-0.000	-0.000
676.00	-0.000	-0.000	-0.000	-0.000	-0.001	-0.001	-0.000	-0.000	-0.000	-0.000	-0.000
677.00	-0.000	-0.000	-0.000	-0.000	-0.001	-0.001	-0.000	-0.000	-0.000	-0.000	-0.000
678.00	-0.000	-0.000	-0.000	-0.000	-0.001	-0.001	-0.000	-0.000	-0.000	-0.000	-0.000
679.00	-0.000	-0.000	-0.000	-0.000	-0.001	-0.001	-0.000	-0.000	-0.000	-0.000	-0.000
680.00	-0.000	-0.000	-0.000	-0.000	-0.001	-0.001	-0.000	-0.000	-0.000	-0.000	-0.000
681.00	0.000	-0.000	-0.000	-0.000	-0.001	-0.001	-0.000	-0.000	-0.000	-0.000	-0.000
682.00	0.000	-0.000	-0.000	-0.000	-0.001	-0.001	-0.000	-0.000	-0.000	-0.000	-0.000
683.00	-0.000	-0.000	-0.000	-0.000	-0.001	-0.001	-0.000	-0.000	-0.000	-0.000	-0.000
684.00	0.000	-0.000	-0.000	-0.000	-0.001	-0.000	-0.000	-0.000	-0.000	-0.000	-0.000
685.00	0.000	-0.000	-0.000	-0.000	-0.000	-0.000	-0.000	-0.000	-0.000	-0.000	-0.000
686.00	0.000	-0.000	-0.000	-0.000	-0.001	-0.000	-0.000	-0.000	-0.000	-0.000	-0.000
687.00	-0.000	-0.000	-0.000	-0.000	-0.001	-0.001	-0.000	-0.000	-0.000	-0.000	-0.000
688.00	-0.000	-0.000	-0.000	-0.000	-0.001	-0.001	-0.000	-0.000	-0.000	-0.000	-0.000
689.00	0.000	-0.000	-0.000	-0.000	-0.001	-0.000	-0.000	-0.000	-0.000	-0.000	-0.000
690.00	0.000	-0.000	-0.000	-0.000	-0.001	-0.000	-0.000	-0.000	-0.000	-0.000	-0.000
691.00	-0.000	-0.000	-0.000	-0.000	-0.001	-0.000	-0.000	-0.000	-0.000	-0.000	-0.000
692.00	-0.000	-0.000	-0.000	-0.000	-0.001	-0.001	-0.000	-0.000	-0.000	-0.000	-0.000
693.00	-0.000	-0.001	-0.000	-0.000	-0.001	-0.001	-0.000	-0.000	-0.000	-0.000	-0.000
694.00	-0.000	-0.000	-0.000	-0.000	-0.001	-0.001	-0.000	-0.000	-0.000	-0.000	-0.000
695.00	-0.000	-0.000	-0.000	-0.000	-0.001	-0.001	-0.000	-0.000	-0.000	-0.000	-0.000
696.00	-0.000	-0.001	-0.000	-0.000	-0.001	-0.001	-0.000	-0.001	-0.000	-0.000	-0.000
697.00	-0.000	-0.001	-0.000	-0.000	-0.001	-0.001	-0.000	-0.001	-0.000	-0.000	-0.000
698.00	-0.000	-0.001	-0.000	-0.000	-0.001	-0.001	-0.000	-0.000	-0.000	-0.000	-0.000
699.00	-0.000	-0.001	-0.000	-0.000	-0.001	-0.001	-0.000	-0.001	-0.000	-0.000	-0.000
700.00	-0.000	-0.000	-0.000	-0.000	-0.001	-0.001	-0.000	-0.000	-0.000	-0.000	-0.000
701.00	0.000	-0.000	-0.000	-0.000	-0.001	-0.001	-0.000	-0.000	-0.000	-0.000	-0.000
702.00	0.000	-0.000	-0.000	-0.000	-0.001	-0.001	-0.000	-0.000	-0.000	-0.000	-0.000
703.00	-0.000	-0.001	-0.000	-0.000	-0.001	-0.001	-0.000	-0.000	-0.000	-0.000	-0.000
704.00	-0.000	-0.001	-0.000	-0.000	-0.001	-0.001	-0.000	-0.000	-0.000	-0.000	-0.000
705.00	-0.000	-0.001	-0.000	-0.000	-0.001	-0.001	-0.000	-0.000	-0.000	-0.000	-0.000
706.00	-0.000	-0.001	-0.000	-0.000	-0.001	-0.001	-0.000	-0.000	-0.000	-0.000	-0.000
707.00	-0.000	-0.001	-0.000	-0.000	-0.001	-0.001	-0.000	-0.000	-0.000	-0.000	-0.000
708.00	-0.000	-0.001	-0.000	-0.000	-0.001	-0.001	-0.000	-0.000	-0.000	-0.000	-0.000
709.00	-0.000	-0.001	-0.000	-0.000	-0.001	-0.001	-0.000	-0.000	-0.000	-0.000	-0.000
710.00	-0.000	-0.001	-0.000	-0.000	-0.001	-0.001	-0.000	-0.000	-0.000	-0.000	-0.000
711.00	-0.000	-0.001	-0.000	-0.000	-0.001	-0.001	-0.000	-0.001	-0.000	-0.001	-0.000
712.00	-0.000	-0.001	-0.000	-0.000	-0.001	-0.001	-0.000	-0.001	-0.000	-0.000	-0.000
713.00	-0.000	-0.001	-0.000	-0.000	-0.001	-0.001	-0.000	-0.000	-0.000	-0.000	-0.000
714.00	-0.000	-0.001	-0.000	-0.000	-0.001	-0.001	-0.000	-0.001	-0.000	-0.001	-0.000
715.00	-0.000	-0.001	-0.000	-0.000	-0.001	-0.001	-0.000	-0.001	-0.000	-0.001	-0.000
716.00	-0.000	-0.001	-0.000	-0.000	-0.001	-0.001	-0.000	-0.000	-0.000	-0.001	-0.000
717.00	-0.000	-0.001	-0.000	-0.000	-0.001	-0.001	-0.000	-0.000	-0.000	-0.001	-0.001
718.00	-0.000	-0.001	-0.000	-0.000	-0.001	-0.001	-0.000	-0.000	-0.000	-0.000	-0.000
719.00	-0.000	-0.001	-0.000	-0.000	-0.001	-0.001	-0.000	-0.000	-0.000	-0.000	-0.000
720.00	-0.000	-0.001	-0.000	-0.000	-0.001	-0.001	-0.000	-0.001	-0.000	-0.000	-0.000
721.00	-0.000	-0.001	-0.000	-0.000	-0.001	-0.001	-0.000	-0.001	-0.000	-0.000	-0.000
722.00	-0.000	-0.001	-0.000	-0.000	-0.001	-0.001	-0.000	-0.001	-0.000	-0.000	-0.000
723.00	-0.000	-0.001	-0.000	-0.000	-0.001	-0.001	-0.000	-0.001	-0.000	-0.001	-0.001
724.00	-0.000	-0.001	-0.000	-0.000	-0.001	-0.001	-0.000	-0.001	-0.000	-0.001	-0.001
725.00	-0.000	-0.001	-0.000	-0.000	-0.001	-0.001	-0.000	-0.001	-0.000	-0.001	-0.000
726.00	-0.000	-0.001	-0.000	-0.000	-0.001	-0.001	-0.000	-0.000	-0.000	-0.001	-0.000
727.00	-0.000	-0.001	-0.000	-0.000	-0.001	-0.001	-0.000	-0.000	-0.000	-0.001	-0.000
728.00	-0.000	-0.001	-0.000	-0.000	-0.001	-0.001	-0.000	-0.000	-0.000	-0.000	-0.000
729.00	-0.000	-0.001	-0.000	-0.000	-0.001	-0.001	-0.000	-0.001	-0.000	-0.001	-0.000
730.00	-0.000	-0.001	-0.000	-0.001	-0.001	-0.001	-0.000	-0.001	-0.000	-0.001	-0.000
731.00	-0.000	-0.001	-0.000	-0.000	-0.001	-0.001	-0.000	-0.000	-0.000	-0.000	-0.000
732.00	-0.000	-0.001	-0.000	-0.000	-0.001	-0.001	-0.000	-0.000	-0.000	-0.000	-0.000
733.00	-0.000	-0.001	-0.000	-0.000	-0.001	-0.001	-0.000	-0.000	-0.000	-0.000	-0.000
734.00	-0.000	-0.001	-0.000	-0.000	-0.001	-0.001	-0.000	-0.001	-0.000	-0.001	-0.000
735.00	-0.000	-0.001	-0.000	-0.000	-0.001	-0.001	-0.000	-0.000	-0.000	-0.000	-0.000
736.00	-0.000	-0.001	-0.000	-0.000	-0.001	-0.001	-0.000	-0.000	-0.000	-0.000	-0.000
737.00	-0.000	-0.001	-0.000	-0.001	-0.001	-0.001	-0.000	-0.001	-0.000	-0.000	-0.000
738.00	-0.000	-0.001	-0.000	-0.000	-0.001	-0.001	-0.000	-0.000	-0.000	-0.000	-0.000
739.00	-0.000	-0.001	-0.000	-0.000	-0.001	-0.001	-0.000	-0.001	-0.000	-0.000	-0.000
740.00	-0.000	-0.001	-0.000	-0.000	-0.001	-0.001	-0.000	-0.000	-0.000	-0.000	-0.000
741.00	-0.000	-0.001	-0.000	-0.000	-0.001	-0.001	-0.000	-0.000	-0.000	-0.000	-0.000
742.00	-0.000	-0.001	-0.000	-0.000	-0.001	-0.001	-0.000	-0.000	-0.000	-0.000	-0.000
743.00	-0.000	-0.001	-0.000	-0.000	-0.001	-0.001	-0.000	-0.000	-0.000	-0.000	-0.000
744.00	-0.000	-0.001	-0.000	-0.000	-0.001	-0.001	-0.000	-0.000	-0.000	-0.000	-0.000
745.00	-0.000	-0.001	-0.000	-0.000	-0.001	-0.001	-0.000	-0.000	-0.000	-0.000	-0.000
746.00	-0.000	-0.001	-0.000	-0.000	-0.001	-0.001	-0.000	-0.001	-0.000	-0.001	-0.000
747.00	-0.000	-0.001	-0.000	-0.000	-0.001	-0.001	-0.000	-0.001	-0.000	-0.000	-0.000
748.00	-0.000	-0.001	-0.000	-0.000	-0.001	-0.001	-0.000	-0.001	-0.000	-0.000	-0.000
749.00	-0.000	-0.001	-0.000	-0.000	-0.001	-0.001	-0.000	-0.001	-0.000	-0.000	-0.000
750.00	-0.000	-0.001	-0.000	-0.001	-0.001	-0.001	-0.000	-0.001	-0.000	-0.000	-0.000
751.00	-0.000	-0.001	-0.000	-0.001	-0.001	-0.001	-0.000	-0.001	-0.000	-0.000	-0.000
752.00	-0.000	-0.001	-0.000	-0.000	-0.001	-0.001	-0.000	-0.001	-0.000	-0.000	-0.000
753.00	-0.000	-0.001	-0.000	-0.000	-0.001	-0.001	-0.000	-0.001	-0.000	-0.000	-0.000
754.00	-0.000	-0.001	-0.000	-0.000	-0.001	-0.001	-0.000	-0.001	-0.000	-0.000	-0.000
755.00	-0.000	-0.001	-0.000	-0.000	-0.001	-0.001	-0.000	-0.000	-0.000	-0.000	-0.000
756.00	-0.000	-0.001	-0.000	-0.000	-0.001	-0.001	-0.000	-0.000	-0.000	-0.000	-0.000
757.00	-0.000	-0.001	-0.000	-0.000	-0.001	-0.001	-0.000	-0.001	-0.000	-0.000	-0.000
758.00	-0.000	-0.001	-0.000	-0.000	-0.001	-0.001	-0.000	-0.000	-0.000	-0.000	-0.000
759.00	0.000	-0.000	0.000	-0.000	-0.000	-0.000	-0.000	-0.000	-0.000	-0.000	-0.000
760.00	0.001	0.001	0.001	0.001	0.001	0.001	0.001	0.001	0.001	0.001	0.001
761.00	0.000	-0.000	-0.000	-0.000	-0.000	-0.000	-0.000	-0.000	-0.000	-0.000	-0.000
762.00	-0.000	-0.001	-0.000	-0.001	-0.001	-0.001	-0.001	-0.001	-0.000	-0.000	-0.000
763.00	-0.000	-0.001	-0.000	-0.001	-0.001	-0.001	-0.000	-0.001	-0.000	-0.000	-0.000
764.00	-0.000	-0.000	-0.000	-0.001	-0.001	-0.001	-0.001	-0.001	-0.000	-0.000	-0.000
765.00	-0.000	-0.000	-0.000	-0.001	-0.001	-0.001	-0.001	-0.001	-0.000	-0.000	-0.000
766.00	-0.000	-0.001	-0.000	-0.001	-0.001	-0.001	-0.001	-0.001	-0.001	-0.001	-0.000
767.00	-0.000	-0.001	-0.000	-0.001	-0.001	-0.001	-0.000	-0.001	-0.001	-0.001	-0.000
768.00	-0.000	-0.000	-0.000	-0.001	-0.001	-0.001	-0.000	-0.001	-0.001	-0.000	-0.000
769.00	-0.000	-0.001	-0.000	-0.001	-0.001	-0.001	-0.000	-0.001	-0.000	-0.001	-0.000
770.00	-0.000	-0.000	-0.000	-0.001	-0.001	-0.001	-0.000	-0.001	-0.000	-0.001	-0.000
771.00	-0.000	-0.000	-0.000	-0.001	-0.001	-0.001	-0.000	-0.001	-0.000	-0.001	-0.000
772.00	-0.000	-0.000	-0.000	-0.001	-0.001	-0.001	-0.000	-0.001	-0.000	-0.001	-0.000
773.00	-0.000	-0.000	-0.000	-0.001	-0.001	-0.001	-0.000	-0.001	-0.000	-0.001	-0.000
774.00	-0.000	-0.001	-0.000	-0.001	-0.001	-0.001	-0.000	-0.001	-0.001	-0.001	-0.000
775.00	-0.000	-0.000	-0.000	-0.001	-0.001	-0.001	-0.000	-0.001	-0.000	-0.000	-0.000
776.00	-0.000	-0.001	-0.000	-0.001	-0.001	-0.001	-0.001	-0.001	-0.000	-0.001	-0.000
777.00	-0.000	-0.001	-0.000	-0.001	-0.001	-0.001	-0.001	-0.001	-0.001	-0.001	-0.000
778.00	-0.000	-0.001	-0.000	-0.001	-0.001	-0.001	-0.001	-0.001	-0.000	-0.000	-0.000
779.00	-0.000	-0.000	-0.000	-0.001	-0.001	-0.001	-0.000	-0.001	-0.000	-0.000	-0.000
780.00	-0.000	-0.000	-0.000	-0.001	-0.001	-0.001	-0.000	-0.001	-0.000	-0.000	-0.000
781.00	-0.000	-0.000	-0.000	-0.000	-0.001	-0.001	-0.000	-0.001	-0.000	-0.000	-0.000
782.00	-0.000	-0.000	-0.000	-0.001	-0.001	-0.001	-0.000	-0.001	-0.001	-0.000	-0.000
783.00	-0.000	-0.000	-0.000	-0.001	-0.001	-0.001	-0.000	-0.001	-0.001	-0.000	-0.000
784.00	-0.000	-0.000	-0.000	-0.001	-0.001	-0.001	-0.000	-0.001	-0.001	-0.000	-0.000
785.00	-0.000	-0.000	-0.000	-0.001	-0.001	-0.001	-0.000	-0.001	-0.001	-0.000	-0.000
786.00	-0.000	-0.001	-0.000	-0.000	-0.001	-0.001	-0.000	-0.001	-0.001	-0.000	-0.000
787.00	-0.000	-0.000	-0.000	-0.001	-0.001	-0.001	-0.001	-0.001	-0.000	-0.000	-0.000
788.00	-0.000	-0.000	-0.000	-0.000	-0.001	-0.001	-0.000	-0.001	-0.000	-0.000	-0.000
789.00	-0.000	-0.000	-0.000	-0.001	-0.001	-0.001	-0.000	-0.001	-0.000	-0.000	-0.000
790.00	-0.000	-0.000	-0.000	-0.001	-0.001	-0.001	-0.000	-0.001	-0.000	-0.000	-0.000
791.00	0.000	-0.000	-0.000	-0.000	-0.001	-0.001	-0.000	-0.001	-0.000	-0.000	-0.000
792.00	0.000	-0.000	-0.000	-0.000	-0.001	-0.000	-0.000	-0.000	-0.000	-0.000	-0.000
793.00	0.000	-0.000	-0.000	-0.000	-0.001	-0.000	-0.000	-0.001	-0.000	-0.000	-0.000
794.00	-0.000	-0.000	-0.000	-0.001	-0.001	-0.001	-0.000	-0.001	-0.000	-0.000	-0.000
795.00	-0.000	-0.000	-0.000	-0.001	-0.001	-0.001	-0.000	-0.001	-0.000	-0.000	-0.000
796.00	0.000	-0.000	-0.000	-0.000	-0.001	-0.000	-0.000	-0.001	-0.000	-0.000	-0.000
797.00	0.000	-0.000	-0.000	-0.000	-0.001	-0.001	-0.000	-0.001	-0.000	-0.000	-0.000
798.00	0.000	-0.000	-0.000	-0.001	-0.001	-0.001	-0.000	-0.001	-0.000	-0.000	-0.000
799.00	0.000	-0.000	-0.000	-0.000	-0.001	-0.000	-0.000	-0.001	-0.000	-0.000	-0.000
800.00	0.000	-0.000	-0.000	-0.000	-0.001	-0.001	-0.000	-0.001	-0.000	-0.000	-0.000
801.00	0.000	-0.000	-0.000	-0.000	-0.001	-0.001	-0.000	-0.000	-0.000	-0.000	-0.000
802.00	0.000	-0.000	-0.000	-0.000	-0.001	-0.000	-0.000	-0.000	-0.000	-0.000	-0.000
803.00	-0.000	-0.000	-0.000	-0.000	-0.001	-0.001	-0.000	-0.001	-0.000	-0.000	-0.000
804.00	0.000	-0.000	-0.000	-0.000	-0.001	-0.001	-0.000	-0.000	-0.000	-0.000	-0.000
805.00	0.000	-0.000	-0.000	-0.000	-0.001	-0.001	-0.000	-0.000	-0.000	-0.000	-0.000
806.00	-0.000	-0.000	-0.000	-0.000	-0.001	-0.001	-0.000	-0.001	-0.000	-0.000	-0.000
807.00	-0.000	-0.000	-0.000	-0.001	-0.001	-0.001	-0.000	-0.001	-0.000	-0.000	-0.000
808.00	0.000	-0.000	-0.000	-0.000	-0.001	-0.001	-0.000	-0.000	-0.000	-0.000	-0.000
809.00	0.000	-0.000	-0.000	-0.000	-0.001	-0.001	-0.000	-0.000	-0.000	-0.000	-0.000
810.00	0.000	-0.000	-0.000	-0.000	-0.001	-0.000	-0.000	-0.000	-0.000	-0.000	-0.000
811.00	0.000	-0.000	-0.000	-0.000	-0.001	-0.000	-0.000	-0.000	-0.000	-0.000	-0.000
812.00	0.000	-0.000	-0.000	-0.000	-0.001	-0.000	-0.000	-0.000	-0.000	-0.000	-0.000
813.00	0.000	-0.000	-0.000	-0.000	-0.001	-0.000	-0.000	-0.000	-0.000	-0.000	-0.000
814.00	-0.000	-0.000	-0.000	-0.000	-0.001	-0.000	-0.000	-0.000	-0.000	-0.000	-0.000
815.00	0.000	-0.000	-0.000	-0.000	-0.001	-0.000	-0.000	-0.000	-0.000	-0.000	-0.000
816.00	-0.000	-0.000	-0.000	-0.000	-0.001	-0.000	-0.000	-0.000	-0.000	-0.000	-0.000
817.00	-0.000	-0.000	-0.000	-0.000	-0.001	-0.001	-0.000	-0.000	-0.000	-0.000	-0.000
818.00	0.000	-0.000	-0.000	-0.000	-0.001	-0.001	-0.000	-0.001	-0.000	-0.000	-0.000
819.00	0.000	-0.000	-0.000	-0.000	-0.001	-0.001	-0.000	-0.000	-0.000	-0.000	-0.000
820.00	0.000	-0.000	-0.000	-0.000	-0.000	-0.000	-0.000	-0.000	-0.000	-0.000	-0.000
821.00	0.000	-0.000	-0.000	-0.000	-0.001	-0.001	-0.000	-0.000	-0.000	-0.000	-0.000
822.00	0.000	-0.000	-0.000	-0.000	-0.001	-0.001	-0.000	-0.000	-0.000	-0.000	-0.000
823.00	-0.000	-0.000	-0.000	-0.000	-0.001	-0.001	-0.000	-0.000	-0.000	-0.000	-0.000
824.00	-0.000	-0.000	-0.000	-0.000	-0.001	-0.001	-0.000	-0.000	-0.000	-0.000	-0.000
825.00	0.000	-0.000	-0.000	-0.000	-0.001	-0.001	-0.000	-0.000	-0.000	-0.000	-0.000
826.00	0.000	-0.000	-0.000	-0.000	-0.001	-0.001	-0.000	-0.000	-0.000	-0.000	-0.000
827.00	0.000	-0.000	-0.000	-0.000	-0.000	-0.001	-0.000	-0.000	-0.000	-0.000	-0.000
828.00	0.000	-0.000	-0.000	-0.000	-0.001	-0.001	-0.000	-0.000	-0.000	-0.000	-0.000
829.00	-0.000	-0.000	-0.000	-0.000	-0.001	-0.001	-0.000	-0.000	-0.000	-0.000	-0.000
830.00	0.000	-0.000	-0.000	-0.000	-0.001	-0.001	-0.000	-0.000	-0.000	-0.000	-0.000
831.00	0.000	-0.000	-0.000	-0.000	-0.001	-0.001	-0.000	-0.000	-0.000	-0.000	-0.000
832.00	0.000	-0.000	-0.000	-0.000	-0.001	-0.001	-0.000	-0.000	-0.000	-0.000	-0.000
833.00	-0.000	-0.000	-0.000	-0.000	-0.001	-0.001	-0.000	-0.000	-0.000	-0.000	-0.000
834.00	0.000	-0.000	-0.000	-0.000	-0.001	-0.001	-0.000	-0.000	-0.000	-0.000	-0.000
835.00	0.000	-0.000	-0.000	-0.000	-0.001	-0.001	-0.000	-0.000	-0.000	-0.000	-0.000
836.00	0.000	-0.000	-0.000	-0.000	-0.001	-0.001	-0.000	-0.001	-0.000	-0.000	-0.000
837.00	0.000	-0.000	-0.000	-0.000	-0.001	-0.001	-0.000	-0.000	-0.000	-0.000	-0.000
838.00	0.000	-0.000	-0.000	-0.000	-0.001	-0.001	-0.000	-0.000	-0.000	-0.000	-0.000
839.00	0.000	-0.000	-0.000	-0.000	-0.001	-0.001	-0.000	-0.000	-0.000	-0.000	-0.000
840.00	0.000	-0.000	-0.000	-0.000	-0.001	-0.001	-0.000	-0.000	-0.000	-0.000	-0.000
841.00	0.000	-0.000	-0.000	-0.000	-0.001	-0.001	-0.000	-0.000	-0.000	-0.000	-0.000
842.00	0.000	-0.000	-0.000	-0.000	-0.001	-0.001	-0.000	-0.000	-0.000	-0.000	-0.000
843.00	-0.000	-0.000	-0.000	-0.000	-0.001	-0.001	-0.000	-0.001	-0.000	-0.001	-0.000
844.00	-0.000	-0.001	-0.000	-0.000	-0.001	-0.001	-0.000	-0.001	-0.000	-0.000	-0.000
845.00	0.000	-0.000	-0.000	-0.000	-0.001	-0.001	-0.000	-0.000	-0.000	-0.000	-0.000
846.00	-0.000	-0.000	-0.000	-0.000	-0.001	-0.001	-0.000	-0.000	-0.000	-0.000	-0.000
847.00	0.000	-0.000	-0.000	-0.000	-0.001	-0.001	-0.000	-0.000	-0.000	-0.000	-0.000
848.00	0.000	-0.000	-0.000	-0.000	-0.001	-0.001	-0.000	-0.000	-0.000	-0.000	-0.000
849.00	-0.000	-0.000	-0.000	-0.000	-0.001	-0.001	-0.000	-0.000	-0.000	-0.000	-0.000
850.00	0.000	-0.001	-0.000	-0.000	-0.001	-0.001	-0.000	-0.000	-0.000	-0.000	-0.000
